"time" "channel1" "channel2" "channel3" "channel4" "channel5" "channel6" "channel7" "channel8"
"1844" 44939 1.17821888913882e-08 2.96309639775151e-09 7.95914704004073e-09 4.43516020736199e-08 1.06249346779693e-07 6.97883705371407e-08 4.43787314233018e-08 6.78785689410406e-09
"1845" 44940 1.17787520432046e-08 2.95914725778651e-09 7.95841935285124e-09 4.43759657323869e-08 1.06169686906289e-07 6.98425305414802e-08 4.48466274463608e-08 6.78044186251075e-09
"1846" 44941 1.1775315195021e-08 2.95519811782151e-09 7.95769166566176e-09 4.44003293911539e-08 1.06090027032886e-07 6.98966905458198e-08 4.53145234694198e-08 6.77302683091744e-09
"1847" 44942 1.18106722427059e-08 2.95002253754981e-09 7.98146827539709e-09 4.46544677490011e-08 1.06010553306508e-07 6.99022750526694e-08 4.5487489235492e-08 6.77211767823608e-09
"1848" 44943 1.18460292903907e-08 2.94484695727812e-09 8.00524488513241e-09 4.49086061068482e-08 1.0593107958013e-07 6.99078595595191e-08 4.56604550015643e-08 6.77120852555473e-09
"1849" 44944 1.18813863380756e-08 2.93967137700642e-09 8.02902149486773e-09 4.51627444646953e-08 1.05851605853752e-07 6.99134440663688e-08 4.58334207676366e-08 6.77029937287337e-09
"1850" 44945 1.19167433857604e-08 2.93449579673473e-09 8.05279810460306e-09 4.54168828225425e-08 1.05772132127375e-07 6.99190285732185e-08 4.60063865337088e-08 6.76939022019201e-09
"1851" 44946 1.19521004334453e-08 2.92932021646304e-09 8.07657471433838e-09 4.56710211803896e-08 1.05692658400997e-07 6.99246130800681e-08 4.6179352299781e-08 6.76848106751066e-09
"1852" 44947 1.19874574811301e-08 2.92414463619134e-09 8.10035132407371e-09 4.59251595382367e-08 1.05613184674619e-07 6.99301975869178e-08 4.63523180658533e-08 6.7675719148293e-09
"1853" 44948 1.2022814528815e-08 2.91896905591965e-09 8.12412793380903e-09 4.61792978960839e-08 1.05533710948242e-07 6.99357820937675e-08 4.65252838319255e-08 6.76666276214794e-09
"1854" 44949 1.20581715764998e-08 2.91379347564795e-09 8.14790454354435e-09 4.6433436253931e-08 1.05454237221864e-07 6.99413666006171e-08 4.66982495979978e-08 6.76575360946659e-09
"1855" 44950 1.20935286241847e-08 2.90861789537626e-09 8.17168115327968e-09 4.66875746117781e-08 1.05374763495486e-07 6.99469511074668e-08 4.687121536407e-08 6.76484445678523e-09
"1856" 44951 1.21288856718695e-08 2.90344231510456e-09 8.195457763015e-09 4.69417129696253e-08 1.05295289769109e-07 6.99525356143165e-08 4.70441811301423e-08 6.76393530410387e-09
"1857" 44952 1.21642427195544e-08 2.89826673483287e-09 8.21923437275033e-09 4.71958513274724e-08 1.05215816042731e-07 6.99581201211662e-08 4.72171468962145e-08 6.76302615142251e-09
"1858" 44953 1.21995997672392e-08 2.89309115456118e-09 8.24301098248565e-09 4.74499896853195e-08 1.05136342316353e-07 6.99637046280158e-08 4.73901126622868e-08 6.76211699874116e-09
"1859" 44954 1.21995997672392e-08 2.89186471425449e-09 8.26383595849039e-09 4.77020740087824e-08 1.04491124740605e-07 6.98620436824061e-08 4.74999012061561e-08 6.70801178308285e-09
"1860" 44955 1.22254385704213e-08 2.8889130805239e-09 8.28761256822571e-09 4.76858940434309e-08 1.039834780275e-07 6.98527079408898e-08 4.7702687852627e-08 6.71451766199481e-09
"1861" 44956 1.22217670691365e-08 2.8871878871e-09 8.2905642019563e-09 4.80126039129954e-08 1.03477699867799e-07 6.98459853600951e-08 4.79672369885317e-08 6.74750163289526e-09
"1862" 44957 1.22106267594546e-08 2.88961625850437e-09 8.31474966141815e-09 4.79673309337547e-08 1.02982529065767e-07 6.98928258079623e-08 4.80244077637944e-08 6.74580967132022e-09
"1863" 44958 1.21994864497727e-08 2.89204462990874e-09 8.33893512088e-09 4.7922057954514e-08 1.02487358263734e-07 6.99396662558295e-08 4.80815785390571e-08 6.74411770974518e-09
"1864" 44959 1.21883461400908e-08 2.8944730013131e-09 8.36312058034185e-09 4.78767849752733e-08 1.01992187461701e-07 6.99865067036967e-08 4.81387493143199e-08 6.74242574817014e-09
"1865" 44960 1.2177205830409e-08 2.89690137271747e-09 8.38730603980371e-09 4.78315119960326e-08 1.01497016659669e-07 7.00333471515639e-08 4.81959200895826e-08 6.74073378659509e-09
"1866" 44961 1.21660655207271e-08 2.89932974412184e-09 8.41149149926556e-09 4.77862390167919e-08 1.01001845857636e-07 7.00801875994311e-08 4.82530908648453e-08 6.73904182502005e-09
"1867" 44962 1.21549252110452e-08 2.90175811552621e-09 8.43567695872741e-09 4.77409660375512e-08 1.00506675055603e-07 7.01270280472983e-08 4.8310261640108e-08 6.73734986344501e-09
"1868" 44963 1.21437849013633e-08 2.90418648693058e-09 8.45986241818926e-09 4.76956930583106e-08 1.00011504253571e-07 7.01738684951655e-08 4.83674324153708e-08 6.73565790186997e-09
"1869" 44964 1.21326445916814e-08 2.90661485833495e-09 8.48404787765111e-09 4.76504200790699e-08 9.95163334515381e-08 7.02207089430328e-08 4.84246031906335e-08 6.73396594029492e-09
"1870" 44965 1.21215042819995e-08 2.90904322973932e-09 8.50823333711296e-09 4.76051470998292e-08 9.90211626495054e-08 7.02675493909e-08 4.84817739658962e-08 6.73227397871988e-09
"1871" 44966 1.21103639723176e-08 2.91147160114369e-09 8.53241879657481e-09 4.75598741205885e-08 9.85259918474728e-08 7.03143898387672e-08 4.85389447411589e-08 6.73058201714484e-09
"1872" 44967 1.20992236626357e-08 2.91389997254805e-09 8.55660425603667e-09 4.75146011413478e-08 9.80308210454402e-08 7.03612302866344e-08 4.85961155164216e-08 6.7288900555698e-09
"1873" 44968 1.20880833529538e-08 2.91632834395242e-09 8.58078971549852e-09 4.74693281621071e-08 9.75356502434075e-08 7.04080707345016e-08 4.86532862916844e-08 6.72719809399475e-09
"1874" 44969 1.20769430432719e-08 2.91875671535679e-09 8.60497517496037e-09 4.74240551828664e-08 9.70404794413749e-08 7.04549111823688e-08 4.87104570669471e-08 6.72550613241971e-09
"1875" 44970 1.206580273359e-08 2.92118508676116e-09 8.62916063442222e-09 4.73787822036257e-08 9.65453086393422e-08 7.0501751630236e-08 4.87676278422098e-08 6.72381417084467e-09
"1876" 44971 1.20546624239081e-08 2.92361345816553e-09 8.65334609388407e-09 4.7333509224385e-08 9.60501378373096e-08 7.05485920781032e-08 4.88247986174725e-08 6.72212220926963e-09
"1877" 44972 1.20435221142262e-08 2.9260418295699e-09 8.67753155334592e-09 4.72882362451443e-08 9.55549670352769e-08 7.05954325259704e-08 4.88819693927352e-08 6.72043024769459e-09
"1878" 44973 1.20323818045443e-08 2.92847020097427e-09 8.70171701280778e-09 4.72429632659036e-08 9.50597962332443e-08 7.06422729738376e-08 4.8939140167998e-08 6.71873828611954e-09
"1879" 44974 1.20364681883947e-08 2.93480682737099e-09 8.72658927448646e-09 4.74641794286094e-08 9.49993135638552e-08 7.02048953029375e-08 4.88214130228034e-08 6.70737431309415e-09
"1880" 44975 1.18866031299386e-08 2.93723519877535e-09 8.74954829364162e-09 4.76169321483663e-08 9.49864056707692e-08 7.02195979336075e-08 4.86598612024134e-08 6.70401247833233e-09
"1881" 44976 1.17367380714825e-08 2.93966357017972e-09 8.77250731279678e-09 4.77696848681232e-08 9.49734977776831e-08 7.02343005642776e-08 4.84983093820234e-08 6.70065064357051e-09
"1882" 44977 1.15868730130264e-08 2.94209194158409e-09 8.79546633195194e-09 4.79224375878801e-08 9.4960589884597e-08 7.02490031949476e-08 4.83367575616335e-08 6.69728880880869e-09
"1883" 44978 1.14569875261734e-08 2.9391403078535e-09 8.79423989164525e-09 4.8270278020441e-08 9.49350199334125e-08 7.0208829450465e-08 4.83992716070369e-08 6.7485751195989e-09
"1884" 44979 1.13039916548255e-08 2.93546098693343e-09 8.80091173126856e-09 4.83923914238531e-08 9.50796725036869e-08 7.01730809663118e-08 4.84302357488537e-08 6.74603717723634e-09
"1885" 44980 1.11509957834777e-08 2.93178166601336e-09 8.80758357089188e-09 4.85145048272651e-08 9.52243250739613e-08 7.01373324821587e-08 4.84611998906705e-08 6.74349923487378e-09
"1886" 44981 1.09979999121298e-08 2.92810234509328e-09 8.81425541051520e-09 4.86366182306771e-08 9.53689776442357e-08 7.01015839980056e-08 4.84921640324873e-08 6.74096129251121e-09
"1887" 44982 1.0845004040782e-08 2.92442302417321e-09 8.82092725013851e-09 4.87587316340892e-08 9.55136302145101e-08 7.00658355138524e-08 4.85231281743041e-08 6.73842335014865e-09
"1888" 44983 1.06920081694341e-08 2.92074370325314e-09 8.82759908976183e-09 4.88808450375012e-08 9.56582827847845e-08 7.00300870296993e-08 4.85540923161209e-08 6.73588540778609e-09
"1889" 44984 1.05390122980863e-08 2.91706438233306e-09 8.83427092938514e-09 4.90029584409133e-08 9.58029353550589e-08 6.99943385455462e-08 4.85850564579377e-08 6.73334746542352e-09
"1890" 44985 1.03860164267384e-08 2.91338506141299e-09 8.84094276900846e-09 4.91250718443253e-08 9.59475879253333e-08 6.9958590061393e-08 4.86160205997546e-08 6.73080952306096e-09
"1891" 44986 1.02330205553906e-08 2.90970574049292e-09 8.84761460863177e-09 4.92471852477373e-08 9.60922404956077e-08 6.99228415772399e-08 4.86469847415714e-08 6.7282715806984e-09
"1892" 44987 1.00800246840427e-08 2.90602641957284e-09 8.85428644825509e-09 4.93692986511494e-08 9.62368930658821e-08 6.98870930930868e-08 4.86779488833882e-08 6.72573363833583e-09
"1893" 44988 9.92702881269489e-09 2.90234709865277e-09 8.8609582878784e-09 4.94914120545614e-08 9.63815456361565e-08 6.98513446089336e-08 4.8708913025205e-08 6.72319569597327e-09
"1894" 44989 9.91275769012124e-09 2.85398442204733e-09 8.81401010067928e-09 4.95660479563962e-08 9.50296292715428e-08 6.97337235635733e-08 4.85848278056541e-08 6.69864944455976e-09
"1895" 44990 9.89848656754759e-09 2.80562174544189e-09 8.76706191348016e-09 4.96406838582311e-08 9.3677712906929e-08 6.96161025182129e-08 4.84607425861033e-08 6.67410319314626e-09
"1896" 44991 9.88421544497395e-09 2.75725906883646e-09 8.72011372628103e-09 4.97153197600659e-08 9.23257965423152e-08 6.94984814728526e-08 4.83366573665525e-08 6.64955694173275e-09
"1897" 44992 9.8699443224003e-09 2.70889639223102e-09 8.67316553908191e-09 4.97899556619007e-08 9.09738801777014e-08 6.93808604274922e-08 4.82125721470016e-08 6.62501069031924e-09
"1898" 44993 9.85567319982665e-09 2.66053371562558e-09 8.62621735188279e-09 4.98645915637355e-08 8.96219638130877e-08 6.92632393821319e-08 4.80884869274508e-08 6.60046443890574e-09
"1899" 44994 9.841402077253e-09 2.61217103902014e-09 8.57926916468367e-09 4.99392274655703e-08 8.82700474484739e-08 6.91456183367715e-08 4.79644017079e-08 6.57591818749223e-09
"1900" 44995 9.82713095467935e-09 2.5638083624147e-09 8.53232097748454e-09 5.00138633674052e-08 8.69181310838601e-08 6.90279972914112e-08 4.78403164883491e-08 6.55137193607873e-09
"1901" 44996 9.81285983210571e-09 2.51544568580927e-09 8.48537279028542e-09 5.008849926924e-08 8.55662147192463e-08 6.89103762460508e-08 4.77162312687983e-08 6.52682568466522e-09
"1902" 44997 9.76414976772276e-09 2.47951908560672e-09 8.31188023312443e-09 4.97309243514022e-08 8.52342950384924e-08 6.87363808178156e-08 4.78818373427272e-08 6.50709335058863e-09
"1903" 44998 9.71448413238124e-09 2.44359248540418e-09 8.14954829364162e-09 4.94659404476187e-08 8.54899945503384e-08 6.92852768499047e-08 4.79737737104932e-08 6.49282521241304e-09
"1904" 44999 9.66481849703972e-09 2.40766588520164e-09 7.98721635415881e-09 4.92009565438352e-08 8.57456940621844e-08 6.98341728819938e-08 4.80657100782592e-08 6.47855707423746e-09
"1905" 45000 9.61515286169819e-09 2.3717392849991e-09 7.824884414676e-09 4.89359726400516e-08 8.60013935740303e-08 7.03830689140828e-08 4.81576464460251e-08 6.46428893606188e-09
"1906" 45001 9.56548722635667e-09 2.33581268479656e-09 7.66255247519319e-09 4.86709887362681e-08 8.62570930858763e-08 7.09319649461719e-08 4.82495828137911e-08 6.4500207978863e-09
"1907" 45002 9.51582159101514e-09 2.29988608459401e-09 7.50022053571037e-09 4.84060048324846e-08 8.65127925977223e-08 7.1480860978261e-08 4.83415191815571e-08 6.43575265971072e-09
"1908" 45003 9.46615595567362e-09 2.26395948439147e-09 7.33788859622756e-09 4.81410209287011e-08 8.67684921095683e-08 7.202975701035e-08 4.8433455549323e-08 6.42148452153514e-09
"1909" 45004 9.4164903203321e-09 2.22803288418893e-09 7.17555665674475e-09 4.78760370249176e-08 8.70241916214143e-08 7.25786530424391e-08 4.8525391917089e-08 6.40721638335956e-09
"1910" 45005 9.36682468499057e-09 2.19210628398639e-09 7.01322471726194e-09 4.76110531211341e-08 8.72798911332602e-08 7.31275490745282e-08 4.8617328284855e-08 6.39294824518398e-09
"1911" 45006 9.31715904964905e-09 2.15617968378385e-09 6.85089277777913e-09 4.73460692173505e-08 8.75355906451062e-08 7.36764451066172e-08 4.87092646526209e-08 6.37868010700840e-09
"1912" 45007 9.26749341430753e-09 2.1202530835813e-09 6.68856083829632e-09 4.7081085313567e-08 8.77912901569522e-08 7.42253411387063e-08 4.88012010203869e-08 6.36441196883281e-09
"1913" 45008 9.217827778966e-09 2.08432648337876e-09 6.5262288988135e-09 4.68161014097835e-08 8.80469896687982e-08 7.47742371707954e-08 4.88931373881528e-08 6.35014383065723e-09
"1914" 45009 9.16816214362448e-09 2.04839988317622e-09 6.36389695933069e-09 4.6551117506e-08 8.83026891806442e-08 7.53231332028844e-08 4.89850737559188e-08 6.33587569248165e-09
"1915" 45010 9.15894993441356e-09 2.03626626847264e-09 6.3677888385594e-09 4.68381735695828e-08 8.89717073181633e-08 7.57814737853377e-08 4.91374822259992e-08 6.34231530622881e-09
"1916" 45011 9.15881164022505e-09 2.03649520254492e-09 6.383896102437e-09 4.71252296331656e-08 8.9722998470595e-08 7.63504757904562e-08 4.92779620698165e-08 6.34777950212983e-09
"1917" 45012 9.15867334603654e-09 2.04040345753727e-09 6.38102623865172e-09 4.71259482518837e-08 8.98585712979452e-08 7.62876270057434e-08 4.92371258017717e-08 6.35324369803084e-09
"1918" 45013 9.20626456855038e-09 2.0406732765822e-09 6.38948053243522e-09 4.72363231787387e-08 8.99824866565735e-08 7.62750387826777e-08 4.96572389796247e-08 6.3557816403934e-09
"1919" 45014 9.25385579106421e-09 2.04094309562713e-09 6.39793482621873e-09 4.73466981055937e-08 9.01064020152017e-08 7.6262450559612e-08 5.00773521574778e-08 6.35831958275597e-09
"1920" 45015 9.30144701357805e-09 2.04121291467206e-09 6.40638912000223e-09 4.74570730324488e-08 9.023031737383e-08 7.62498623365463e-08 5.04974653353308e-08 6.36085752511853e-09
"1921" 45016 9.34903823609189e-09 2.04148273371699e-09 6.41484341378574e-09 4.75674479593038e-08 9.03542327324583e-08 7.62372741134806e-08 5.09175785131838e-08 6.36339546748109e-09
"1922" 45017 9.39662945860573e-09 2.04175255276192e-09 6.42329770756924e-09 4.76778228861588e-08 9.04781480910865e-08 7.62246858904149e-08 5.13376916910368e-08 6.36593340984366e-09
"1923" 45018 9.44422068111957e-09 2.04202237180685e-09 6.43175200135275e-09 4.77881978130138e-08 9.06020634497148e-08 7.62120976673492e-08 5.17578048688899e-08 6.36847135220622e-09
"1924" 45019 9.4918119036334e-09 2.04229219085178e-09 6.44020629513625e-09 4.78985727398689e-08 9.07259788083431e-08 7.61995094442836e-08 5.21779180467429e-08 6.37100929456878e-09
"1925" 45020 9.53940312614724e-09 2.04256200989671e-09 6.44866058891976e-09 4.80089476667239e-08 9.08498941669713e-08 7.61869212212179e-08 5.25980312245959e-08 6.37354723693135e-09
"1926" 45021 9.58699434866108e-09 2.04283182894164e-09 6.45711488270326e-09 4.81193225935789e-08 9.09738095255996e-08 7.61743329981522e-08 5.30181444024489e-08 6.37608517929391e-09
"1927" 45022 9.63458557117492e-09 2.04310164798657e-09 6.46556917648677e-09 4.8229697520434e-08 9.10977248842278e-08 7.61617447750865e-08 5.3438257580302e-08 6.37862312165647e-09
"1928" 45023 9.68217679368875e-09 2.0433714670315e-09 6.47402347027027e-09 4.8340072447289e-08 9.12216402428561e-08 7.61491565520208e-08 5.3858370758155e-08 6.38116106401904e-09
"1929" 45024 9.72976801620259e-09 2.04364128607643e-09 6.48247776405378e-09 4.8450447374144e-08 9.13455556014844e-08 7.61365683289551e-08 5.4278483936008e-08 6.3836990063816e-09
"1930" 45025 9.77735923871643e-09 2.04391110512136e-09 6.49093205783728e-09 4.8560822300999e-08 9.14694709601126e-08 7.61239801058894e-08 5.46985971138611e-08 6.38623694874416e-09
"1931" 45026 9.82495046123027e-09 2.04418092416629e-09 6.49938635162079e-09 4.86711972278541e-08 9.15933863187409e-08 7.61113918828237e-08 5.51187102917141e-08 6.38877489110673e-09
"1932" 45027 9.87254168374411e-09 2.04445074321122e-09 6.50784064540429e-09 4.87815721547091e-08 9.17173016773692e-08 7.6098803659758e-08 5.55388234695671e-08 6.39131283346929e-09
"1933" 45028 9.92013290625794e-09 2.04472056225615e-09 6.5162949391878e-09 4.88919470815641e-08 9.18412170359974e-08 7.60862154366923e-08 5.59589366474201e-08 6.39385077583186e-09
"1934" 45029 9.96772412877178e-09 2.04499038130108e-09 6.5247492329713e-09 4.90023220084192e-08 9.19651323946257e-08 7.60736272136266e-08 5.63790498252732e-08 6.39638871819442e-09
"1935" 45030 1.00153153512856e-08 2.04526020034601e-09 6.53320352675481e-09 4.91126969352742e-08 9.20890477532539e-08 7.60610389905609e-08 5.67991630031262e-08 6.39892666055698e-09
"1936" 45031 1.00629065737995e-08 2.04553001939094e-09 6.54165782053832e-09 4.92230718621292e-08 9.22129631118822e-08 7.60484507674952e-08 5.72192761809792e-08 6.40146460291955e-09
"1937" 45032 1.00502030927681e-08 2.02257100023578e-09 6.44052535034499e-09 4.89376611689285e-08 9.17765895500371e-08 7.60869953252308e-08 5.85146782994791e-08 6.35581919513645e-09
"1938" 45033 1.00559240301586e-08 2.02257100023578e-09 6.37271130216848e-09 4.83104717014713e-08 9.12768702819882e-08 7.60216663071919e-08 5.85026039180325e-08 6.35581919513645e-09
"1939" 45034 1.0061644967549e-08 2.02257100023578e-09 6.30489725399197e-09 4.7683282234014e-08 9.07771510139394e-08 7.5956337289153e-08 5.84905295365858e-08 6.35581919513645e-09
"1940" 45035 1.00673659049395e-08 2.02257100023578e-09 6.23708320581546e-09 4.70560927665568e-08 9.02774317458906e-08 7.58910082711141e-08 5.84784551551391e-08 6.35581919513645e-09
"1941" 45036 1.007308684233e-08 2.02257100023578e-09 6.16926915763895e-09 4.64289032990996e-08 8.97777124778417e-08 7.58256792530752e-08 5.84663807736924e-08 6.35581919513645e-09
"1942" 45037 1.00788077797204e-08 2.02257100023578e-09 6.10145510946244e-09 4.58017138316424e-08 8.92779932097929e-08 7.57603502350363e-08 5.84543063922458e-08 6.35581919513645e-09
"1943" 45038 1.00845287171109e-08 2.02257100023578e-09 6.03364106128593e-09 4.51745243641852e-08 8.8778273941744e-08 7.56950212169974e-08 5.84422320107991e-08 6.35581919513645e-09
"1944" 45039 1.00902496545014e-08 2.02257100023578e-09 5.96582701310942e-09 4.45473348967279e-08 8.82785546736952e-08 7.56296921989585e-08 5.84301576293524e-08 6.35581919513645e-09
"1945" 45040 1.00959705918918e-08 2.02257100023578e-09 5.89801296493291e-09 4.39201454292707e-08 8.77788354056464e-08 7.55643631809196e-08 5.84180832479057e-08 6.35581919513645e-09
"1946" 45041 1.01016915292823e-08 2.02257100023578e-09 5.8301989167564e-09 4.32929559618135e-08 8.72791161375975e-08 7.54990341628808e-08 5.84060088664591e-08 6.35581919513645e-09
"1947" 45042 1.01074124666728e-08 2.02257100023578e-09 5.76238486857989e-09 4.26657664943563e-08 8.67793968695487e-08 7.54337051448419e-08 5.83939344850124e-08 6.35581919513645e-09
"1948" 45043 1.01131334040632e-08 2.02257100023578e-09 5.69457082040338e-09 4.20385770268991e-08 8.62796776014999e-08 7.5368376126803e-08 5.83818601035657e-08 6.35581919513645e-09
"1949" 45044 1.01188543414537e-08 2.02257100023578e-09 5.62675677222687e-09 4.14113875594418e-08 8.5779958333451e-08 7.53030471087641e-08 5.8369785722119e-08 6.35581919513645e-09
"1950" 45045 1.01245752788442e-08 2.02257100023578e-09 5.55894272405036e-09 4.07841980919846e-08 8.52802390654022e-08 7.52377180907252e-08 5.83577113406724e-08 6.35581919513645e-09
"1951" 45046 1.01302962162346e-08 2.02257100023578e-09 5.49112867587385e-09 4.01570086245274e-08 8.47805197973534e-08 7.51723890726863e-08 5.83456369592257e-08 6.35581919513645e-09
"1952" 45047 1.01309876871772e-08 2.02625032115585e-09 5.4950369308662e-09 4.01645164990794e-08 8.47485611593174e-08 7.51828840607228e-08 5.83456369592257e-08 6.35328125277389e-09
"1953" 45048 1.01316791581198e-08 2.02992964207592e-09 5.49894518585855e-09 4.01720243736315e-08 8.47166025212814e-08 7.51933790487592e-08 5.83456369592257e-08 6.35074331041133e-09
"1954" 45049 1.01323706290623e-08 2.03360896299600e-09 5.5028534408509e-09 4.01795322481835e-08 8.46846438832454e-08 7.52038740367957e-08 5.83456369592257e-08 6.34820536804876e-09
"1955" 45050 1.01330621000049e-08 2.03728828391607e-09 5.50676169584325e-09 4.01870401227356e-08 8.46526852452094e-08 7.52143690248322e-08 5.83456369592257e-08 6.3456674256862e-09
"1956" 45051 1.01337535709474e-08 2.04096760483614e-09 5.5106699508356e-09 4.01945479972876e-08 8.46207266071734e-08 7.52248640128686e-08 5.83456369592257e-08 6.34312948332364e-09
"1957" 45052 1.013444504189e-08 2.04464692575621e-09 5.51457820582795e-09 4.02020558718397e-08 8.45887679691374e-08 7.52353590009051e-08 5.83456369592257e-08 6.34059154096107e-09
"1958" 45053 1.01351365128326e-08 2.04832624667629e-09 5.5184864608203e-09 4.02095637463917e-08 8.45568093311014e-08 7.52458539889416e-08 5.83456369592257e-08 6.33805359859851e-09
"1959" 45054 1.01413981386161e-08 2.04832624667629e-09 5.4805158297309e-09 4.0199647705963e-08 8.44207448337762e-08 7.51300526835044e-08 5.81053436338832e-08 6.33805359859851e-09
"1960" 45055 1.01476597643996e-08 2.04832624667629e-09 5.4425451986415e-09 4.01897316655342e-08 8.42846803364509e-08 7.50142513780672e-08 5.78650503085407e-08 6.33805359859851e-09
"1961" 45056 1.01473412407467e-08 2.0453746129457e-09 5.40679851409321e-09 4.02692370547103e-08 8.47195971149738e-08 7.48922050723773e-08 5.76270635450506e-08 6.33707818075236e-09
"1962" 45057 1.01470227170939e-08 2.04242297921511e-09 5.37105182954492e-09 4.03487424438864e-08 8.51545138934967e-08 7.47701587666875e-08 5.73890767815605e-08 6.33610276290621e-09
"1963" 45058 1.0146704193441e-08 2.03947134548452e-09 5.33530514499663e-09 4.04282478330625e-08 8.55894306720196e-08 7.46481124609977e-08 5.71510900180704e-08 6.33512734506006e-09
"1964" 45059 1.01463856697881e-08 2.03651971175393e-09 5.29955846044834e-09 4.05077532222385e-08 8.60243474505425e-08 7.45260661553078e-08 5.69131032545803e-08 6.33415192721391e-09
"1965" 45060 1.01460671461353e-08 2.03356807802334e-09 5.26381177590005e-09 4.05872586114146e-08 8.64592642290654e-08 7.4404019849618e-08 5.66751164910902e-08 6.33317650936776e-09
"1966" 45061 1.01457486224824e-08 2.03061644429275e-09 5.22806509135175e-09 4.06667640005907e-08 8.68941810075883e-08 7.42819735439281e-08 5.64371297276001e-08 6.33220109152161e-09
"1967" 45062 1.01454300988296e-08 2.02766481056216e-09 5.19231840680346e-09 4.07462693897668e-08 8.73290977861111e-08 7.41599272382383e-08 5.619914296411e-08 6.33122567367546e-09
"1968" 45063 1.01451115751767e-08 2.02471317683158e-09 5.15657172225517e-09 4.08257747789428e-08 8.7764014564634e-08 7.40378809325484e-08 5.59611562006199e-08 6.33025025582931e-09
"1969" 45064 1.01447930515238e-08 2.02176154310099e-09 5.12082503770688e-09 4.09052801681189e-08 8.81989313431569e-08 7.39158346268586e-08 5.57231694371298e-08 6.32927483798316e-09
"1970" 45065 1.0144474527871e-08 2.0188099093704e-09 5.08507835315859e-09 4.0984785557295e-08 8.86338481216798e-08 7.37937883211687e-08 5.54851826736397e-08 6.32829942013701e-09
"1971" 45066 1.01441560042181e-08 2.01585827563981e-09 5.04933166861029e-09 4.10642909464711e-08 8.90687649002027e-08 7.36717420154789e-08 5.52471959101496e-08 6.32732400229086e-09
"1972" 45067 1.01438374805653e-08 2.01290664190922e-09 5.013584984062e-09 4.11437963356471e-08 8.95036816787256e-08 7.35496957097891e-08 5.50092091466595e-08 6.32634858444471e-09
"1973" 45068 1.01436572511009e-08 2.01386326317098e-09 5.00764083162817e-09 4.09310220424067e-08 8.97040013679588e-08 7.35095219653064e-08 5.3495925219417e-08 6.31116820031682e-09
"1974" 45069 1.01309537700695e-08 2.01378149322567e-09 5.0135032141167e-09 4.10312227527831e-08 9.02862222967996e-08 7.33814965141548e-08 5.34424329197084e-08 6.31101667486993e-09
"1975" 45070 1.01248304384746e-08 2.01301292106354e-09 5.01936559660522e-09 4.10576242238736e-08 9.02862222967996e-08 7.3482208190625e-08 5.34027599520979e-08 6.31101667486993e-09
"1976" 45071 1.0143062139071e-08 2.01604632473943e-09 5.08326325634401e-09 4.10789687861434e-08 9.04087152503219e-08 7.33789027776378e-08 5.34033816803474e-08 6.33157290134578e-09
"1977" 45072 1.01612938396675e-08 2.01907972841533e-09 5.14716091608279e-09 4.11003133484133e-08 9.05312082038443e-08 7.32755973646506e-08 5.3404003408597e-08 6.35212912782163e-09
"1978" 45073 1.0179525540264e-08 2.02211313209122e-09 5.21105857582158e-09 4.11216579106831e-08 9.06537011573666e-08 7.31722919516634e-08 5.34046251368466e-08 6.37268535429748e-09
"1979" 45074 1.01977572408605e-08 2.02514653576712e-09 5.27495623556037e-09 4.11430024729529e-08 9.0776194110889e-08 7.30689865386762e-08 5.34052468650961e-08 6.39324158077333e-09
"1980" 45075 1.02159889414569e-08 2.02817993944301e-09 5.33885389529915e-09 4.11643470352227e-08 9.08986870644113e-08 7.29656811256889e-08 5.34058685933457e-08 6.41379780724918e-09
"1981" 45076 1.02342206420534e-08 2.0312133431189e-09 5.40275155503794e-09 4.11856915974925e-08 9.10211800179337e-08 7.28623757127017e-08 5.34064903215952e-08 6.43435403372503e-09
"1982" 45077 1.02524523426499e-08 2.0342467467948e-09 5.46664921477672e-09 4.12070361597623e-08 9.1143672971456e-08 7.27590702997145e-08 5.34071120498448e-08 6.45491026020088e-09
"1983" 45078 1.02706840432464e-08 2.03728015047069e-09 5.53054687451551e-09 4.12283807220322e-08 9.12661659249784e-08 7.26557648867273e-08 5.34077337780943e-08 6.47546648667673e-09
"1984" 45079 1.02889157438428e-08 2.04031355414659e-09 5.59444453425430e-09 4.1249725284302e-08 9.13886588785008e-08 7.25524594737401e-08 5.34083555063438e-08 6.49602271315258e-09
"1985" 45080 1.03071474444393e-08 2.04334695782248e-09 5.65834219399308e-09 4.12710698465718e-08 9.15111518320231e-08 7.24491540607529e-08 5.34089772345934e-08 6.51657893962843e-09
"1986" 45081 1.03253791450358e-08 2.04638036149838e-09 5.72223985373187e-09 4.12924144088416e-08 9.16336447855455e-08 7.23458486477656e-08 5.34095989628429e-08 6.53713516610428e-09
"1987" 45082 1.03436108456323e-08 2.04941376517427e-09 5.78613751347065e-09 4.13137589711114e-08 9.17561377390678e-08 7.22425432347784e-08 5.34102206910925e-08 6.55769139258013e-09
"1988" 45083 1.03618425462287e-08 2.05244716885017e-09 5.85003517320944e-09 4.13351035333812e-08 9.18786306925902e-08 7.21392378217912e-08 5.34108424193421e-08 6.57824761905598e-09
"1989" 45084 1.03800742468252e-08 2.05548057252606e-09 5.91393283294822e-09 4.13564480956511e-08 9.20011236461125e-08 7.2035932408804e-08 5.34114641475916e-08 6.59880384553183e-09
"1990" 45085 1.03983059474217e-08 2.05851397620196e-09 5.97783049268701e-09 4.13777926579209e-08 9.21236165996349e-08 7.19326269958168e-08 5.34120858758412e-08 6.61936007200768e-09
"1991" 45086 1.04165376480182e-08 2.06154737987785e-09 6.04172815242580e-09 4.13991372201907e-08 9.22461095531572e-08 7.18293215828296e-08 5.34127076040907e-08 6.63991629848353e-09
"1992" 45087 1.04347693486146e-08 2.06458078355375e-09 6.10562581216458e-09 4.14204817824605e-08 9.23686025066796e-08 7.17260161698423e-08 5.34133293323403e-08 6.66047252495938e-09
"1993" 45088 1.04530010492111e-08 2.06761418722964e-09 6.16952347190337e-09 4.14418263447303e-08 9.24910954602019e-08 7.16227107568551e-08 5.34139510605898e-08 6.68102875143523e-09
"1994" 45089 1.04674229543343e-08 2.06555378057915e-09 6.17788786229619e-09 4.14238608767777e-08 9.25965498703514e-08 7.14031129256287e-08 5.30721981276342e-08 6.67773008856725e-09
"1995" 45090 1.04293125112402e-08 2.01638978028429e-09 6.14160967310342e-09 4.15199756067739e-08 9.26119373627391e-08 7.01152782479607e-08 5.2530881089712e-08 6.67434616541716e-09
"1996" 45091 1.03860467958707e-08 1.96749559903437e-09 6.10150499886359e-09 4.14957993694863e-08 9.26114315264797e-08 6.88656993522917e-08 5.19372163840169e-08 6.67278364090075e-09
"1997" 45092 1.03427810805012e-08 1.91860141778445e-09 6.06140032462377e-09 4.14716231321987e-08 9.26109256902203e-08 6.76161204566228e-08 5.13435516783218e-08 6.67122111638434e-09
"1998" 45093 1.02995153651317e-08 1.86970723653452e-09 6.02129565038395e-09 4.14474468949112e-08 9.26104198539609e-08 6.63665415609538e-08 5.07498869726267e-08 6.66965859186792e-09
"1999" 45094 1.02562496497622e-08 1.8208130552846e-09 5.98119097614413e-09 4.14232706576236e-08 9.26099140177015e-08 6.51169626652848e-08 5.01562222669315e-08 6.66809606735151e-09
"2000" 45095 1.02129839343927e-08 1.77191887403468e-09 5.9410863019043e-09 4.1399094420336e-08 9.26094081814421e-08 6.38673837696159e-08 4.95625575612364e-08 6.66653354283510e-09
"2001" 45096 1.01697182190232e-08 1.72302469278475e-09 5.90098162766448e-09 4.13749181830485e-08 9.26089023451827e-08 6.26178048739469e-08 4.89688928555413e-08 6.66497101831868e-09
"2002" 45097 1.01264525036537e-08 1.67413051153483e-09 5.86087695342466e-09 4.13507419457609e-08 9.26083965089233e-08 6.13682259782779e-08 4.83752281498462e-08 6.66340849380227e-09
"2003" 45098 1.00831867882842e-08 1.6252363302849e-09 5.82077227918484e-09 4.13265657084733e-08 9.26078906726639e-08 6.0118647082609e-08 4.7781563444151e-08 6.66184596928585e-09
"2004" 45099 1.00399210729147e-08 1.57634214903498e-09 5.78066760494502e-09 4.13023894711858e-08 9.26073848364045e-08 5.886906818694e-08 4.71878987384559e-08 6.66028344476944e-09
"2005" 45100 9.99665535754517e-09 1.52744796778506e-09 5.74056293070519e-09 4.12782132338982e-08 9.26068790001451e-08 5.7619489291271e-08 4.65942340327608e-08 6.65872092025303e-09
"2006" 45101 9.95338964217567e-09 1.47855378653513e-09 5.70045825646537e-09 4.12540369966106e-08 9.26063731638857e-08 5.63699103956021e-08 4.60005693270657e-08 6.65715839573661e-09
"2007" 45102 9.94726631058067e-09 1.47855378653513e-09 5.68274845408184e-09 4.10315399507484e-08 9.13837390662668e-08 5.64390329934578e-08 4.60043721482697e-08 6.63044351801912e-09
"2008" 45103 9.94114297898568e-09 1.47855378653513e-09 5.6650386516983e-09 4.08090429048862e-08 9.01611049686479e-08 5.65081555913136e-08 4.60081749694737e-08 6.60372864030163e-09
"2009" 45104 9.93501964739068e-09 1.47855378653513e-09 5.64732884931477e-09 4.0586545859024e-08 8.8938470871029e-08 5.65772781891693e-08 4.60119777906777e-08 6.57701376258414e-09
"2010" 45105 9.92889631579568e-09 1.47855378653513e-09 5.62961904693123e-09 4.03640488131618e-08 8.77158367734101e-08 5.66464007870251e-08 4.60157806118817e-08 6.55029888486665e-09
"2011" 45106 9.92277298420069e-09 1.47855378653513e-09 5.6119092445477e-09 4.01415517672997e-08 8.64932026757912e-08 5.67155233848808e-08 4.60195834330857e-08 6.52358400714916e-09
"2012" 45107 9.91664965260569e-09 1.47855378653513e-09 5.59419944216416e-09 3.99190547214375e-08 8.52705685781723e-08 5.67846459827366e-08 4.60233862542897e-08 6.49686912943166e-09
"2013" 45108 9.91052632101070e-09 1.47855378653513e-09 5.57648963978063e-09 3.96965576755753e-08 8.40479344805534e-08 5.68537685805923e-08 4.60271890754937e-08 6.47015425171417e-09
"2014" 45109 9.9044029894157e-09 1.47855378653513e-09 5.55877983739709e-09 3.94740606297131e-08 8.28253003829345e-08 5.69228911784481e-08 4.60309918966977e-08 6.44343937399668e-09
"2015" 45110 9.86307339268537e-09 1.46302704572005e-09 5.52542063928052e-09 3.93845315120107e-08 8.26064954729721e-08 5.69665138496009e-08 4.60341087610509e-08 6.41839127619501e-09
"2016" 45111 9.82174379595504e-09 1.44750030490497e-09 5.49206144116394e-09 3.92950023943082e-08 8.23876905630097e-08 5.70101365207538e-08 4.6037225625404e-08 6.39334317839334e-09
"2017" 45112 9.78239672333253e-09 1.44055864623672e-09 5.46252872809441e-09 3.92528814005344e-08 8.26289646729914e-08 5.69920967182338e-08 4.62909679869301e-08 6.37569111706767e-09
"2018" 45113 9.75530880226102e-09 1.43109871277343e-09 5.46301934776624e-09 3.96463872542775e-08 8.31301903063578e-08 5.83218266577472e-08 4.63624340673568e-08 6.40359610997204e-09
"2019" 45114 9.72822088118951e-09 1.42163877931014e-09 5.46350996743807e-09 4.00398931080206e-08 8.36314159397243e-08 5.96515565972607e-08 4.64339001477835e-08 6.43150110287641e-09
"2020" 45115 9.701132960118e-09 1.41217884584684e-09 5.46400058710991e-09 4.04333989617637e-08 8.41326415730907e-08 6.09812865367741e-08 4.65053662282102e-08 6.45940609578078e-09
"2021" 45116 9.67404503904650e-09 1.40271891238355e-09 5.46449120678174e-09 4.08269048155068e-08 8.46338672064571e-08 6.23110164762875e-08 4.65768323086369e-08 6.48731108868515e-09
"2022" 45117 9.64695711797499e-09 1.39325897892026e-09 5.46498182645357e-09 4.12204106692499e-08 8.51350928398236e-08 6.36407464158009e-08 4.66482983890636e-08 6.51521608158952e-09
"2023" 45118 9.61986919690348e-09 1.38379904545696e-09 5.4654724461254e-09 4.1613916522993e-08 8.563631847319e-08 6.49704763553143e-08 4.67197644694903e-08 6.54312107449389e-09
"2024" 45119 9.59278127583197e-09 1.37433911199367e-09 5.46596306579724e-09 4.20074223767361e-08 8.61375441065565e-08 6.63002062948278e-08 4.6791230549917e-08 6.57102606739826e-09
"2025" 45120 9.56569335476046e-09 1.36487917853038e-09 5.46645368546907e-09 4.24009282304793e-08 8.66387697399229e-08 6.76299362343412e-08 4.68626966303437e-08 6.59893106030263e-09
"2026" 45121 9.53860543368895e-09 1.35541924506708e-09 5.4669443051409e-09 4.27944340842224e-08 8.71399953732894e-08 6.89596661738546e-08 4.69341627107704e-08 6.626836053207e-09
"2027" 45122 9.51151751261744e-09 1.34595931160379e-09 5.46743492481274e-09 4.31879399379655e-08 8.76412210066558e-08 7.0289396113368e-08 4.70056287911972e-08 6.65474104611137e-09
"2028" 45123 9.48442959154593e-09 1.3364993781405e-09 5.46792554448457e-09 4.35814457917086e-08 8.81424466400222e-08 7.16191260528815e-08 4.70770948716239e-08 6.68264603901574e-09
"2029" 45124 9.45734167047442e-09 1.3270394446772e-09 5.4684161641564e-09 4.39749516454517e-08 8.86436722733887e-08 7.29488559923949e-08 4.71485609520506e-08 6.71055103192011e-09
"2030" 45125 9.46642807385783e-09 1.33233767986686e-09 5.42340572868981e-09 4.42764508379671e-08 8.90641666728711e-08 7.43048234019995e-08 4.6995922459169e-08 6.76695121767007e-09
"2031" 45126 9.47797077774426e-09 1.3336050051462e-09 5.43169648258271e-09 4.47025527100748e-08 8.89061357889622e-08 7.37523514077895e-08 4.73174123475353e-08 6.76376918328532e-09
"2032" 45127 9.48951348163068e-09 1.33487233042554e-09 5.4399872364756e-09 4.51286545821826e-08 8.87481049050533e-08 7.31998794135795e-08 4.76389022359015e-08 6.76058714890057e-09
"2033" 45128 9.5010561855171e-09 1.33613965570489e-09 5.4482779903685e-09 4.55547564542904e-08 8.85900740211444e-08 7.26474074193695e-08 4.79603921242677e-08 6.75740511451582e-09
"2034" 45129 9.51259888940353e-09 1.33740698098423e-09 5.45656874426139e-09 4.59808583263982e-08 8.84320431372355e-08 7.20949354251594e-08 4.82818820126339e-08 6.75422308013107e-09
"2035" 45130 9.52414159328995e-09 1.33867430626357e-09 5.46485949815429e-09 4.6406960198506e-08 8.82740122533266e-08 7.15424634309494e-08 4.86033719010001e-08 6.75104104574632e-09
"2036" 45131 9.53568429717637e-09 1.33994163154292e-09 5.47315025204718e-09 4.68330620706138e-08 8.81159813694177e-08 7.09899914367394e-08 4.89248617893664e-08 6.74785901136158e-09
"2037" 45132 9.54722700106279e-09 1.34120895682226e-09 5.48144100594007e-09 4.72591639427215e-08 8.79579504855088e-08 7.04375194425294e-08 4.92463516777326e-08 6.74467697697683e-09
"2038" 45133 9.55876970494922e-09 1.34247628210161e-09 5.48973175983297e-09 4.76852658148293e-08 8.77999196015999e-08 6.98850474483194e-08 4.95678415660988e-08 6.74149494259208e-09
"2039" 45134 9.57031240883564e-09 1.34374360738095e-09 5.49802251372586e-09 4.81113676869371e-08 8.7641888717691e-08 6.93325754541094e-08 4.9889331454465e-08 6.73831290820733e-09
"2040" 45135 9.58185511272206e-09 1.34501093266029e-09 5.50631326761876e-09 4.85374695590449e-08 8.74838578337821e-08 6.87801034598994e-08 5.02108213428312e-08 6.73513087382258e-09
"2041" 45136 9.59339781660848e-09 1.34627825793964e-09 5.51460402151165e-09 4.89635714311527e-08 8.73258269498732e-08 6.82276314656894e-08 5.05323112311975e-08 6.73194883943783e-09
"2042" 45137 9.60494052049491e-09 1.34754558321898e-09 5.52289477540455e-09 4.93896733032605e-08 8.71677960659643e-08 6.76751594714794e-08 5.08538011195637e-08 6.72876680505308e-09
"2043" 45138 9.61648322438133e-09 1.34881290849832e-09 5.53118552929744e-09 4.98157751753682e-08 8.70097651820554e-08 6.71226874772693e-08 5.11752910079299e-08 6.72558477066834e-09
"2044" 45139 9.62802592826775e-09 1.35008023377767e-09 5.53947628319033e-09 5.0241877047476e-08 8.68517342981465e-08 6.65702154830593e-08 5.14967808962961e-08 6.72240273628359e-09
"2045" 45140 9.63956863215418e-09 1.35134755905701e-09 5.54776703708323e-09 5.06679789195838e-08 8.66937034142376e-08 6.60177434888493e-08 5.18182707846623e-08 6.71922070189884e-09
"2046" 45141 9.6511113360406e-09 1.35261488433636e-09 5.55605779097612e-09 5.10940807916916e-08 8.65356725303287e-08 6.54652714946393e-08 5.21397606730286e-08 6.71603866751409e-09
"2047" 45142 9.66265403992702e-09 1.3538822096157e-09 5.56434854486902e-09 5.15201826637994e-08 8.63776416464198e-08 6.49127995004293e-08 5.24612505613948e-08 6.71285663312934e-09
"2048" 45143 9.67419674381344e-09 1.35514953489504e-09 5.57263929876191e-09 5.19462845359072e-08 8.62196107625109e-08 6.43603275062193e-08 5.2782740449761e-08 6.70967459874459e-09
"2049" 45144 9.68573944769987e-09 1.35641686017439e-09 5.58093005265481e-09 5.23723864080149e-08 8.6061579878602e-08 6.38078555120093e-08 5.31042303381272e-08 6.70649256435984e-09
"2050" 45145 9.70980540315331e-09 1.35845275761587e-09 5.59306366735838e-09 5.28142875361879e-08 8.61045707731779e-08 6.37807611033943e-08 5.28021986739199e-08 6.80212681907591e-09
"2051" 45146 9.71361519862662e-09 1.3551904198677e-09 5.60008709597194e-09 5.33879347312796e-08 8.77356300314756e-08 6.34783896789162e-08 5.31918478335909e-08 6.86273482037521e-09
"2052" 45147 9.71030415627051e-09 1.3468996659748e-09 5.63339727567048e-09 5.33944022997425e-08 8.82855797161893e-08 6.43284343712378e-08 5.31616739552587e-08 6.86655123147771e-09
"2053" 45148 9.70616334878334e-09 1.35033367705896e-09 5.79234411361427e-09 5.42880543313523e-08 8.87295408219254e-08 6.39822285498556e-08 5.33136264912894e-08 6.85627311823979e-09
"2054" 45149 9.70202254129616e-09 1.35376768814312e-09 5.95129095155807e-09 5.51817063629621e-08 8.91735019276615e-08 6.36360227284734e-08 5.346557902732e-08 6.84599500500186e-09
"2055" 45150 9.69788173380898e-09 1.35720169922727e-09 6.11023778950186e-09 5.60753583945718e-08 8.96174630333977e-08 6.32898169070911e-08 5.36175315633507e-08 6.83571689176394e-09
"2056" 45151 9.69374092632181e-09 1.36063571031143e-09 6.26918462744565e-09 5.69690104261816e-08 9.00614241391338e-08 6.29436110857089e-08 5.37694840993814e-08 6.82543877852601e-09
"2057" 45152 9.68960011883463e-09 1.36406972139559e-09 6.42813146538944e-09 5.78626624577914e-08 9.05053852448699e-08 6.25974052643267e-08 5.39214366354121e-08 6.81516066528809e-09
"2058" 45153 9.68545931134746e-09 1.36750373247974e-09 6.58707830333323e-09 5.87563144894012e-08 9.09493463506061e-08 6.22511994429444e-08 5.40733891714428e-08 6.80488255205016e-09
"2059" 45154 9.68131850386028e-09 1.3709377435639e-09 6.74602514127702e-09 5.96499665210109e-08 9.13933074563422e-08 6.19049936215622e-08 5.42253417074734e-08 6.79460443881224e-09
"2060" 45155 9.6771776963731e-09 1.37437175464806e-09 6.90497197922081e-09 6.05436185526207e-08 9.18372685620783e-08 6.15587878001799e-08 5.43772942435041e-08 6.78432632557431e-09
"2061" 45156 9.67303688888593e-09 1.37780576573221e-09 7.0639188171646e-09 6.14372705842305e-08 9.22812296678145e-08 6.12125819787977e-08 5.45292467795348e-08 6.77404821233639e-09
"2062" 45157 9.66889608139875e-09 1.38123977681637e-09 7.22286565510839e-09 6.23309226158402e-08 9.27251907735506e-08 6.08663761574154e-08 5.46811993155655e-08 6.76377009909846e-09
"2063" 45158 9.66475527391158e-09 1.38467378790053e-09 7.38181249305218e-09 6.322457464745e-08 9.31691518792868e-08 6.05201703360332e-08 5.48331518515962e-08 6.75349198586054e-09
"2064" 45159 9.6606144664244e-09 1.38810779898469e-09 7.54075933099597e-09 6.41182266790598e-08 9.36131129850229e-08 6.0173964514651e-08 5.49851043876269e-08 6.74321387262261e-09
"2065" 45160 9.65377021697202e-09 1.40367542477242e-09 7.70784975870569e-09 6.50103396514633e-08 9.4156318877941e-08 6.00450338878806e-08 5.492845103398e-08 6.72616791308451e-09
"2066" 45161 9.64692596751963e-09 1.41924305056016e-09 7.8749401864154e-09 6.59024526238667e-08 9.46995247708591e-08 5.99161032611103e-08 5.48717976803331e-08 6.70912195354642e-09
"2067" 45162 9.64008171806725e-09 1.43481067634789e-09 8.04203061412511e-09 6.67945655962702e-08 9.52427306637773e-08 5.97871726343399e-08 5.48151443266862e-08 6.69207599400833e-09
"2068" 45163 9.63323746861486e-09 1.45037830213563e-09 8.20912104183483e-09 6.76866785686737e-08 9.57859365566954e-08 5.96582420075696e-08 5.47584909730393e-08 6.67503003447023e-09
"2069" 45164 9.62639321916248e-09 1.46594592792336e-09 8.37621146954454e-09 6.85787915410772e-08 9.63291424496135e-08 5.95293113807993e-08 5.47018376193925e-08 6.65798407493214e-09
"2070" 45165 9.61954896971009e-09 1.4815135537111e-09 8.54330189725425e-09 6.94709045134806e-08 9.68723483425317e-08 5.94003807540289e-08 5.46451842657456e-08 6.64093811539404e-09
"2071" 45166 9.6127047202577e-09 1.49708117949883e-09 8.71039232496397e-09 7.03630174858841e-08 9.74155542354498e-08 5.92714501272586e-08 5.45885309120987e-08 6.62389215585595e-09
"2072" 45167 9.60586047080532e-09 1.51264880528657e-09 8.87748275267368e-09 7.12551304582876e-08 9.79587601283679e-08 5.91425195004882e-08 5.45318775584518e-08 6.60684619631785e-09
"2073" 45168 9.46912271633175e-09 1.5193451541189e-09 9.01513037070454e-09 7.21306503119317e-08 9.85909828279942e-08 5.90883594961487e-08 5.4713193670314e-08 6.57830991996669e-09
"2074" 45169 9.33238496185818e-09 1.52604150295123e-09 9.1527779887354e-09 7.30061701655758e-08 9.92232055276205e-08 5.90341994918091e-08 5.48945097821761e-08 6.54977364361553e-09
"2075" 45170 9.25203128635101e-09 1.51721111096847e-09 9.12341694900186e-09 7.29977179403772e-08 9.9216237150264e-08 5.90823897393726e-08 5.49134838101638e-08 6.51961167085412e-09
"2076" 45171 9.17167761084384e-09 1.50838071898572e-09 9.09405590926831e-09 7.29892657151786e-08 9.92092687729075e-08 5.91305799869361e-08 5.49324578381514e-08 6.4894496980927e-09
"2077" 45172 9.09132393533668e-09 1.49955032700296e-09 9.06469486953477e-09 7.298081348998e-08 9.9202300395551e-08 5.91787702344996e-08 5.4951431866139e-08 6.45928772533129e-09
"2078" 45173 9.01097025982951e-09 1.49071993502021e-09 9.03533382980122e-09 7.29723612647815e-08 9.91953320181945e-08 5.92269604820631e-08 5.49704058941267e-08 6.42912575256988e-09
"2079" 45174 8.93061658432234e-09 1.48188954303746e-09 9.00597279006767e-09 7.29639090395829e-08 9.9188363640838e-08 5.92751507296266e-08 5.49893799221143e-08 6.39896377980847e-09
"2080" 45175 8.85026290881518e-09 1.4730591510547e-09 8.97661175033413e-09 7.29554568143843e-08 9.91813952634814e-08 5.93233409771902e-08 5.50083539501019e-08 6.36880180704706e-09
"2081" 45176 8.76990923330801e-09 1.46422875907195e-09 8.94725071060058e-09 7.29470045891857e-08 9.91744268861249e-08 5.93715312247537e-08 5.50273279780896e-08 6.33863983428565e-09
"2082" 45177 8.68955555780084e-09 1.45539836708919e-09 8.91788967086704e-09 7.29385523639871e-08 9.91674585087684e-08 5.94197214723172e-08 5.50463020060772e-08 6.30847786152424e-09
"2083" 45178 8.60920188229368e-09 1.44656797510644e-09 8.88852863113349e-09 7.29301001387886e-08 9.91604901314119e-08 5.94679117198807e-08 5.50652760340648e-08 6.27831588876282e-09
"2084" 45179 8.52884820678651e-09 1.43773758312369e-09 8.85916759139995e-09 7.292164791359e-08 9.91535217540554e-08 5.95161019674442e-08 5.50842500620525e-08 6.24815391600141e-09
"2085" 45180 8.44849453127934e-09 1.42890719114093e-09 8.8298065516664e-09 7.29131956883914e-08 9.91465533766989e-08 5.95642922150077e-08 5.51032240900401e-08 6.21799194324e-09
"2086" 45181 8.36814085577218e-09 1.42007679915818e-09 8.80044551193286e-09 7.29047434631928e-08 9.91395849993424e-08 5.96124824625712e-08 5.51221981180277e-08 6.18782997047859e-09
"2087" 45182 8.25792088706224e-09 1.41315964969895e-09 8.77890098218401e-09 7.29198344562731e-08 9.91236916706953e-08 5.97501942003305e-08 5.51335236845398e-08 6.21179530176375e-09
"2088" 45183 8.26858742034895e-09 1.41315964969895e-09 8.77786259097694e-09 7.2914203550359e-08 9.9019585811406e-08 5.95667436354435e-08 5.53118313502352e-08 6.21179530176375e-09
"2089" 45184 8.12715922960953e-09 1.40457456755211e-09 8.74219767637396e-09 7.25802809158195e-08 9.79249977227023e-08 5.95105386331696e-08 5.56043306997197e-08 6.16415178824087e-09
"2090" 45185 7.98573103887012e-09 1.39598948540527e-09 8.70653276177097e-09 7.224635828128e-08 9.68304096339986e-08 5.94543336308958e-08 5.58968300492042e-08 6.11650827471799e-09
"2091" 45186 7.84430284813071e-09 1.38740440325843e-09 8.67086784716798e-09 7.19124356467405e-08 9.57358215452948e-08 5.93981286286219e-08 5.61893293986887e-08 6.06886476119511e-09
"2092" 45187 7.7028746573913e-09 1.3788193211116e-09 8.635202932565e-09 7.1578513012201e-08 9.46412334565911e-08 5.93419236263481e-08 5.64818287481731e-08 6.02122124767224e-09
"2093" 45188 7.56144646665188e-09 1.37023423896476e-09 8.59953801796201e-09 7.12445903776614e-08 9.35466453678873e-08 5.92857186240742e-08 5.67743280976576e-08 5.97357773414936e-09
"2094" 45189 7.42001827591247e-09 1.36164915681792e-09 8.56387310335902e-09 7.09106677431219e-08 9.24520572791836e-08 5.92295136218004e-08 5.70668274471421e-08 5.92593422062648e-09
"2095" 45190 7.27859008517306e-09 1.35306407467108e-09 8.52820818875604e-09 7.05767451085824e-08 9.13574691904799e-08 5.91733086195266e-08 5.73593267966266e-08 5.8782907071036e-09
"2096" 45191 7.13716189443364e-09 1.34447899252424e-09 8.49254327415305e-09 7.02428224740429e-08 9.02628811017761e-08 5.91171036172527e-08 5.76518261461111e-08 5.83064719358072e-09
"2097" 45192 6.99573370369423e-09 1.33589391037741e-09 8.45687835955007e-09 6.99088998395034e-08 8.91682930130724e-08 5.90608986149789e-08 5.79443254955955e-08 5.78300368005785e-09
"2098" 45193 6.85430551295482e-09 1.32730882823057e-09 8.42121344494708e-09 6.95749772049639e-08 8.80737049243686e-08 5.9004693612705e-08 5.823682484508e-08 5.73536016653497e-09
"2099" 45194 6.7128773222154e-09 1.31872374608373e-09 8.38554853034409e-09 6.92410545704244e-08 8.69791168356649e-08 5.89484886104312e-08 5.85293241945645e-08 5.68771665301209e-09
"2100" 45195 6.57144913147599e-09 1.31013866393689e-09 8.34988361574111e-09 6.89071319358848e-08 8.58845287469612e-08 5.88922836081574e-08 5.8821823544049e-08 5.64007313948921e-09
"2101" 45196 6.43002094073658e-09 1.30155358179006e-09 8.31421870113812e-09 6.85732093013453e-08 8.47899406582574e-08 5.88360786058835e-08 5.91143228935334e-08 5.59242962596634e-09
"2102" 45197 6.28859274999717e-09 1.29296849964322e-09 8.27855378653513e-09 6.82392866668058e-08 8.36953525695537e-08 5.87798736036097e-08 5.94068222430179e-08 5.54478611244346e-09
"2103" 45198 6.14716455925775e-09 1.28438341749638e-09 8.24288887193215e-09 6.79053640322663e-08 8.26007644808499e-08 5.87236686013358e-08 5.96993215925024e-08 5.49714259892058e-09
"2104" 45199 6.00573636851834e-09 1.27579833534954e-09 8.20722395732916e-09 6.75714413977268e-08 8.15061763921462e-08 5.8667463599062e-08 5.99918209419869e-08 5.4494990853977e-09
"2105" 45200 5.86430817777893e-09 1.26721325320271e-09 8.17155904272618e-09 6.72375187631873e-08 8.04115883034425e-08 5.86112585967881e-08 6.02843202914714e-08 5.40185557187483e-09
"2106" 45201 5.72287998703951e-09 1.25862817105587e-09 8.13589412812319e-09 6.69035961286478e-08 7.93170002147387e-08 5.85550535945143e-08 6.05768196409558e-08 5.35421205835195e-09
"2107" 45202 5.5814517963001e-09 1.25004308890903e-09 8.1002292135202e-09 6.65696734941082e-08 7.8222412126035e-08 5.84988485922405e-08 6.08693189904403e-08 5.30656854482907e-09
"2108" 45203 5.44002360556069e-09 1.24145800676219e-09 8.06456429891722e-09 6.62357508595687e-08 7.71278240373313e-08 5.84426435899666e-08 6.11618183399248e-08 5.25892503130619e-09
"2109" 45204 5.41154025424305e-09 1.24145800676219e-09 8.07262611873783e-09 6.62193185844948e-08 7.71128756100994e-08 5.84325279599118e-08 6.14777563448828e-08 5.2157954774974e-09
"2110" 45205 5.41924371574134e-09 1.23555473930101e-09 8.06894679781776e-09 6.57999631683663e-08 7.81769345490153e-08 5.83932035136378e-08 6.18331614452191e-08 5.2157954774974e-09
"2111" 45206 5.42694717723962e-09 1.22965147183984e-09 8.06526747689769e-09 6.53806077522378e-08 7.92409934879311e-08 5.83538790673637e-08 6.21885665455554e-08 5.2157954774974e-09
"2112" 45207 5.43465063873791e-09 1.22374820437866e-09 8.06158815597761e-09 6.49612523361093e-08 8.03050524268469e-08 5.83145546210896e-08 6.25439716458917e-08 5.2157954774974e-09
"2113" 45208 5.4423541002362e-09 1.21784493691748e-09 8.05790883505754e-09 6.45418969199808e-08 8.13691113657628e-08 5.82752301748155e-08 6.2899376746228e-08 5.2157954774974e-09
"2114" 45209 5.45005756173448e-09 1.2119416694563e-09 8.05422951413747e-09 6.41225415038522e-08 8.24331703046786e-08 5.82359057285414e-08 6.32547818465643e-08 5.2157954774974e-09
"2115" 45210 5.45776102323277e-09 1.20603840199512e-09 8.05055019321739e-09 6.37031860877237e-08 8.34972292435945e-08 5.81965812822674e-08 6.36101869469006e-08 5.2157954774974e-09
"2116" 45211 5.46546448473106e-09 1.20013513453394e-09 8.04687087229732e-09 6.32838306715952e-08 8.45612881825103e-08 5.81572568359933e-08 6.39655920472369e-08 5.2157954774974e-09
"2117" 45212 5.47316794622934e-09 1.19423186707277e-09 8.04319155137725e-09 6.28644752554667e-08 8.56253471214261e-08 5.81179323897192e-08 6.43209971475732e-08 5.2157954774974e-09
"2118" 45213 5.48087140772763e-09 1.18832859961159e-09 8.03951223045717e-09 6.24451198393382e-08 8.6689406060342e-08 5.80786079434451e-08 6.46764022479095e-08 5.2157954774974e-09
"2119" 45214 5.48857486922592e-09 1.18242533215041e-09 8.0358329095371e-09 6.20257644232096e-08 8.77534649992578e-08 5.8039283497171e-08 6.50318073482458e-08 5.2157954774974e-09
"2120" 45215 5.49627833072421e-09 1.17652206468923e-09 8.03215358861703e-09 6.16064090070811e-08 8.88175239381737e-08 5.7999959050897e-08 6.53872124485821e-08 5.2157954774974e-09
"2121" 45216 5.50398179222249e-09 1.17061879722805e-09 8.02847426769695e-09 6.11870535909526e-08 8.98815828770895e-08 5.79606346046229e-08 6.57426175489184e-08 5.2157954774974e-09
"2122" 45217 5.51168525372078e-09 1.16471552976687e-09 8.02479494677688e-09 6.07676981748241e-08 9.09456418160053e-08 5.79213101583488e-08 6.60980226492547e-08 5.2157954774974e-09
"2123" 45218 5.51938871521907e-09 1.1588122623057e-09 8.02111562585681e-09 6.03483427586956e-08 9.20097007549212e-08 5.78819857120747e-08 6.6453427749591e-08 5.2157954774974e-09
"2124" 45219 5.52206271026945e-09 1.14994098535029e-09 8.01727276504612e-09 6.03493992868454e-08 9.3057114693943e-08 5.76508742140023e-08 6.64705766708624e-08 5.23102003840182e-09
"2125" 45220 5.52473670531983e-09 1.14106970839488e-09 8.01342990423544e-09 6.03504558149952e-08 9.41045286329648e-08 5.74197627159299e-08 6.64877255921338e-08 5.24624459930625e-09
"2126" 45221 5.52741070037021e-09 1.13219843143948e-09 8.00958704342475e-09 6.0351512343145e-08 9.51519425719867e-08 5.71886512178575e-08 6.65048745134052e-08 5.26146916021067e-09
"2127" 45222 5.53008469542060e-09 1.12332715448407e-09 8.00574418261407e-09 6.03525688712948e-08 9.61993565110085e-08 5.69575397197851e-08 6.65220234346765e-08 5.27669372111510e-09
"2128" 45223 5.53275869047098e-09 1.11445587752866e-09 8.00190132180339e-09 6.03536253994447e-08 9.72467704500303e-08 5.67264282217127e-08 6.65391723559479e-08 5.29191828201952e-09
"2129" 45224 5.53543268552136e-09 1.10558460057326e-09 7.9980584609927e-09 6.03546819275945e-08 9.82941843890522e-08 5.64953167236403e-08 6.65563212772193e-08 5.30714284292394e-09
"2130" 45225 5.52954400702755e-09 1.09744101080733e-09 7.99421560018202e-09 6.03751470274607e-08 9.86599080264903e-08 5.63214559711711e-08 6.62202887629068e-08 5.30369574788002e-09
"2131" 45226 5.52365532853375e-09 1.08929742104141e-09 8.02009350154049e-09 6.04107031204072e-08 9.83758332292773e-08 5.60971441038787e-08 6.60472428407698e-08 5.30883480449898e-09
"2132" 45227 5.52279611648784e-09 1.0892156510961e-09 8.04977337873699e-09 6.04460393477527e-08 9.82076654082484e-08 5.60768493260437e-08 6.61912153269252e-08 5.31742095616187e-09
"2133" 45228 5.52193690444194e-09 1.0891338811508e-09 8.07945325593349e-09 6.04813755750983e-08 9.80394975872196e-08 5.60565545482088e-08 6.63351878130805e-08 5.32600710782475e-09
"2134" 45229 5.52107769239604e-09 1.08905211120549e-09 8.10913313313e-09 6.05167118024438e-08 9.78713297661907e-08 5.60362597703739e-08 6.64791602992359e-08 5.33459325948763e-09
"2135" 45230 5.52021848035014e-09 1.08897034126019e-09 8.1388130103265e-09 6.05520480297894e-08 9.77031619451619e-08 5.60159649925389e-08 6.66231327853913e-08 5.34317941115052e-09
"2136" 45231 5.51935926830424e-09 1.08888857131488e-09 8.168492887523e-09 6.05873842571349e-08 9.7534994124133e-08 5.5995670214704e-08 6.67671052715467e-08 5.3517655628134e-09
"2137" 45232 5.51850005625834e-09 1.08880680136958e-09 8.1981727647195e-09 6.06227204844805e-08 9.73668263031042e-08 5.5975375436869e-08 6.6911077757702e-08 5.36035171447628e-09
"2138" 45233 5.51764084421244e-09 1.08872503142427e-09 8.22785264191601e-09 6.0658056711826e-08 9.71986584820753e-08 5.59550806590341e-08 6.70550502438574e-08 5.36893786613917e-09
"2139" 45234 5.51678163216653e-09 1.08864326147897e-09 8.25753251911251e-09 6.06933929391716e-08 9.70304906610465e-08 5.59347858811992e-08 6.71990227300128e-08 5.37752401780205e-09
"2140" 45235 5.51592242012063e-09 1.08856149153366e-09 8.28721239630901e-09 6.07287291665171e-08 9.68623228400176e-08 5.59144911033642e-08 6.73429952161681e-08 5.38611016946493e-09
"2141" 45236 5.51506320807473e-09 1.08847972158836e-09 8.31689227350551e-09 6.07640653938627e-08 9.66941550189888e-08 5.58941963255293e-08 6.74869677023235e-08 5.39469632112781e-09
"2142" 45237 5.51420399602883e-09 1.08839795164305e-09 8.34657215070202e-09 6.07994016212082e-08 9.65259871979599e-08 5.58739015476943e-08 6.76309401884789e-08 5.4032824727907e-09
"2143" 45238 5.51334478398293e-09 1.08831618169774e-09 8.37625202789852e-09 6.08347378485538e-08 9.63578193769311e-08 5.58536067698594e-08 6.77749126746342e-08 5.41186862445358e-09
"2144" 45239 5.5242209936488e-09 1.09118604548303e-09 8.38231883525031e-09 6.08406048421295e-08 9.62289195099545e-08 5.58624572905184e-08 6.77701537957458e-08 5.41954562343511e-09
"2145" 45240 5.52925046009671e-09 1.09110427553772e-09 8.38435473269179e-09 6.0844493045297e-08 9.61673442306588e-08 5.58439822526066e-08 6.77868841199648e-08 5.42455524299544e-09
"2146" 45241 5.53427992654461e-09 1.09102250559242e-09 8.38639063013327e-09 6.08483812484646e-08 9.6105768951363e-08 5.58255072146948e-08 6.78036144441838e-08 5.42956486255577e-09
"2147" 45242 5.53160593149423e-09 1.08979606528573e-09 8.38651328505123e-09 6.08219901331073e-08 9.62142300465e-08 5.52938728449577e-08 6.78155430704468e-08 5.41590282616776e-09
"2148" 45243 5.52893193644385e-09 1.08856962497904e-09 8.38663593996919e-09 6.079559901775e-08 9.63226911416371e-08 5.47622384752207e-08 6.78274716967098e-08 5.40224078977975e-09
"2149" 45244 5.52625794139347e-09 1.08734318467234e-09 8.38675859488715e-09 6.07692079023927e-08 9.64311522367741e-08 5.42306041054836e-08 6.78394003229728e-08 5.38857875339174e-09
"2150" 45245 5.52358394634309e-09 1.08611674436565e-09 8.3868812498051e-09 6.07428167870354e-08 9.65396133319111e-08 5.36989697357465e-08 6.78513289492358e-08 5.37491671700373e-09
"2151" 45246 5.5209099512927e-09 1.08489030405896e-09 8.38700390472306e-09 6.07164256716781e-08 9.66480744270482e-08 5.31673353660094e-08 6.78632575754988e-08 5.36125468061572e-09
"2152" 45247 5.51823595624232e-09 1.08366386375227e-09 8.38712655964102e-09 6.06900345563208e-08 9.67565355221852e-08 5.26357009962724e-08 6.78751862017618e-08 5.34759264422771e-09
"2153" 45248 5.51556196119194e-09 1.08243742344558e-09 8.38724921455898e-09 6.06636434409635e-08 9.68649966173222e-08 5.21040666265353e-08 6.78871148280248e-08 5.3339306078397e-09
"2154" 45249 5.51288796614156e-09 1.08121098313889e-09 8.38737186947694e-09 6.06372523256062e-08 9.69734577124593e-08 5.15724322567982e-08 6.78990434542878e-08 5.32026857145169e-09
"2155" 45250 5.51021397109117e-09 1.0799845428322e-09 8.38749452439489e-09 6.06108612102489e-08 9.70819188075963e-08 5.10407978870611e-08 6.79109720805507e-08 5.30660653506369e-09
"2156" 45251 5.50753997604079e-09 1.07875810252551e-09 8.38761717931285e-09 6.05844700948917e-08 9.71903799027334e-08 5.05091635173241e-08 6.79229007068137e-08 5.29294449867568e-09
"2157" 45252 5.50486598099041e-09 1.07753166221882e-09 8.38773983423081e-09 6.05580789795343e-08 9.72988409978704e-08 4.9977529147587e-08 6.79348293330767e-08 5.27928246228766e-09
"2158" 45253 5.50219198594003e-09 1.07630522191212e-09 8.38786248914877e-09 6.05316878641771e-08 9.74073020930074e-08 4.94458947778499e-08 6.79467579593397e-08 5.26562042589965e-09
"2159" 45254 5.49951799088965e-09 1.07507878160543e-09 8.38798514406673e-09 6.05052967488198e-08 9.75157631881445e-08 4.89142604081128e-08 6.79586865856027e-08 5.25195838951164e-09
"2160" 45255 5.49684399583926e-09 1.07385234129874e-09 8.38810779898469e-09 6.04789056334625e-08 9.76242242832815e-08 4.83826260383758e-08 6.79706152118657e-08 5.23829635312364e-09
"2161" 45256 5.49417000078888e-09 1.07262590099205e-09 8.38823045390264e-09 6.04525145181052e-08 9.77326853784185e-08 4.78509916686387e-08 6.79825438381287e-08 5.22463431673563e-09
"2162" 45257 5.4914960057385e-09 1.07139946068536e-09 8.3883531088206e-09 6.04261234027479e-08 9.78411464735556e-08 4.73193572989016e-08 6.79944724643917e-08 5.21097228034762e-09
"2163" 45258 5.48882201068812e-09 1.07017302037867e-09 8.38847576373856e-09 6.03997322873906e-08 9.79496075686926e-08 4.67877229291645e-08 6.80064010906547e-08 5.1973102439596e-09
"2164" 45259 5.48614801563773e-09 1.06894658007198e-09 8.38859841865652e-09 6.03733411720333e-08 9.80580686638297e-08 4.62560885594275e-08 6.80183297169177e-08 5.1836482075716e-09
"2165" 45260 5.48347402058735e-09 1.06772013976529e-09 8.38872107357448e-09 6.0346950056676e-08 9.81665297589667e-08 4.57244541896904e-08 6.80302583431807e-08 5.16998617118359e-09
"2166" 45261 5.48149149647953e-09 1.0743919793886e-09 8.43512962268374e-09 6.03410934188335e-08 9.81749417908557e-08 4.51878881661914e-08 6.80043846686521e-08 5.15708176203004e-09
"2167" 45262 5.45169211527462e-09 1.09818496488757e-09 8.43512962268374e-09 6.02708548290167e-08 9.81671023663296e-08 4.48136962928354e-08 6.78574611123435e-08 5.12273406210755e-09
"2168" 45263 5.45250939204468e-09 1.13330210795532e-09 8.46145725874139e-09 6.02690796821488e-08 9.81826972551701e-08 4.47826330318579e-08 6.7751286815427e-08 5.12503212547016e-09
"2169" 45264 5.45332666881475e-09 1.16841925102307e-09 8.48778489479904e-09 6.02673045352808e-08 9.81982921440105e-08 4.47515697708804e-08 6.76451125185105e-08 5.12733018883278e-09
"2170" 45265 5.45414394558482e-09 1.20353639409082e-09 8.51411253085669e-09 6.02655293884129e-08 9.8213887032851e-08 4.4720506509903e-08 6.7538938221594e-08 5.12962825219539e-09
"2171" 45266 5.45496122235488e-09 1.23865353715858e-09 8.54044016691434e-09 6.0263754241545e-08 9.82294819216915e-08 4.46894432489255e-08 6.74327639246776e-08 5.131926315558e-09
"2172" 45267 5.45577849912495e-09 1.27377068022633e-09 8.56676780297199e-09 6.0261979094677e-08 9.82450768105319e-08 4.4658379987948e-08 6.73265896277611e-08 5.13422437892062e-09
"2173" 45268 5.45659577589502e-09 1.30888782329408e-09 8.59309543902965e-09 6.02602039478091e-08 9.82606716993724e-08 4.46273167269705e-08 6.72204153308446e-08 5.13652244228323e-09
"2174" 45269 5.45741305266508e-09 1.34400496636183e-09 8.6194230750873e-09 6.02584288009412e-08 9.82762665882128e-08 4.45962534659931e-08 6.71142410339281e-08 5.13882050564585e-09
"2175" 45270 5.45823032943515e-09 1.37912210942959e-09 8.64575071114495e-09 6.02566536540733e-08 9.82918614770533e-08 4.45651902050156e-08 6.70080667370116e-08 5.14111856900846e-09
"2176" 45271 5.45904760620522e-09 1.41423925249734e-09 8.6720783472026e-09 6.02548785072053e-08 9.83074563658938e-08 4.45341269440381e-08 6.69018924400951e-08 5.14341663237107e-09
"2177" 45272 5.45986488297528e-09 1.44935639556509e-09 8.69840598326025e-09 6.02531033603374e-08 9.83230512547342e-08 4.45030636830606e-08 6.67957181431787e-08 5.14571469573369e-09
"2178" 45273 5.46068215974535e-09 1.48447353863284e-09 8.7247336193179e-09 6.02513282134695e-08 9.83386461435747e-08 4.44720004220831e-08 6.66895438462622e-08 5.1480127590963e-09
"2179" 45274 5.46149943651542e-09 1.51959068170059e-09 8.75106125537555e-09 6.02495530666015e-08 9.83542410324151e-08 4.44409371611057e-08 6.65833695493457e-08 5.15031082245891e-09
"2180" 45275 5.46231671328548e-09 1.55470782476835e-09 8.7773888914332e-09 6.02477779197336e-08 9.83698359212556e-08 4.44098739001282e-08 6.64771952524292e-08 5.15260888582153e-09
"2181" 45276 5.46313399005555e-09 1.5898249678361e-09 8.80371652749085e-09 6.02460027728657e-08 9.8385430810096e-08 4.43788106391507e-08 6.63710209555127e-08 5.15490694918414e-09
"2182" 45277 5.46426979047848e-09 1.62502388084916e-09 8.83193289686301e-09 6.02480568072499e-08 9.83994626684814e-08 4.4336395451613e-08 6.64081145194021e-08 5.15076539879959e-09
"2183" 45278 5.4654055909014e-09 1.66022279386222e-09 8.86014926623517e-09 6.02501108416342e-08 9.84134945268667e-08 4.42939802640753e-08 6.64452080832915e-08 5.14662384841504e-09
"2184" 45279 5.46654139132433e-09 1.69542170687527e-09 8.88836563560734e-09 6.02521648760184e-08 9.8427526385252e-08 4.42515650765376e-08 6.64823016471809e-08 5.14248229803049e-09
"2185" 45280 5.46767719174726e-09 1.73062061988833e-09 8.91658200497950e-09 6.02542189104026e-08 9.84415582436373e-08 4.42091498889998e-08 6.65193952110703e-08 5.13834074764595e-09
"2186" 45281 5.46881299217018e-09 1.76581953290139e-09 8.94479837435166e-09 6.02562729447869e-08 9.84555901020226e-08 4.41667347014621e-08 6.65564887749597e-08 5.1341991972614e-09
"2187" 45282 5.46994879259311e-09 1.80101844591445e-09 8.97301474372382e-09 6.02583269791711e-08 9.84696219604079e-08 4.41243195139244e-08 6.65935823388491e-08 5.13005764687685e-09
"2188" 45283 5.47108459301603e-09 1.8362173589275e-09 9.00123111309598e-09 6.02603810135553e-08 9.84836538187933e-08 4.40819043263867e-08 6.66306759027385e-08 5.1259160964923e-09
"2189" 45284 5.47535120633072e-09 1.8362173589275e-09 8.99904805152752e-09 6.02800360286666e-08 9.8661308055015e-08 4.39583041355645e-08 6.67866412437582e-08 5.11930286890998e-09
"2190" 45285 5.46788239793362e-09 1.83326572519692e-09 8.99686498995907e-09 6.02356573569684e-08 9.83613854508318e-08 4.39696137169745e-08 6.69185220504858e-08 5.11930286890998e-09
"2191" 45286 5.46041358953652e-09 1.83031409146633e-09 8.99468192839062e-09 6.01912786852701e-08 9.80614628466486e-08 4.39809232983845e-08 6.70504028572134e-08 5.11930286890998e-09
"2192" 45287 5.45294478113942e-09 1.82736245773574e-09 8.99249886682217e-09 6.01469000135719e-08 9.77615402424655e-08 4.39922328797945e-08 6.71822836639411e-08 5.11930286890998e-09
"2193" 45288 5.44547597274233e-09 1.82441082400515e-09 8.99031580525371e-09 6.01025213418737e-08 9.74616176382823e-08 4.40035424612045e-08 6.73141644706687e-08 5.11930286890998e-09
"2194" 45289 5.43800716434523e-09 1.82145919027456e-09 8.98813274368526e-09 6.00581426701755e-08 9.71616950340991e-08 4.40148520426145e-08 6.74460452773963e-08 5.11930286890998e-09
"2195" 45290 5.43053835594813e-09 1.81850755654397e-09 8.98594968211681e-09 6.00137639984773e-08 9.68617724299159e-08 4.40261616240245e-08 6.7577926084124e-08 5.11930286890998e-09
"2196" 45291 5.42306954755104e-09 1.81555592281338e-09 8.98376662054836e-09 5.99693853267791e-08 9.65618498257327e-08 4.40374712054345e-08 6.77098068908516e-08 5.11930286890998e-09
"2197" 45292 5.41560073915394e-09 1.81260428908279e-09 8.9815835589799e-09 5.99250066550808e-08 9.62619272215495e-08 4.40487807868445e-08 6.78416876975792e-08 5.11930286890998e-09
"2198" 45293 5.40813193075684e-09 1.8096526553522e-09 8.97940049741145e-09 5.98806279833826e-08 9.59620046173663e-08 4.40600903682545e-08 6.79735685043068e-08 5.11930286890998e-09
"2199" 45294 5.40066312235974e-09 1.80670102162161e-09 8.977217435843e-09 5.98362493116844e-08 9.56620820131831e-08 4.40713999496645e-08 6.81054493110345e-08 5.11930286890998e-09
"2200" 45295 5.39319431396265e-09 1.80374938789102e-09 8.97503437427455e-09 5.97918706399862e-08 9.53621594089999e-08 4.40827095310745e-08 6.82373301177621e-08 5.11930286890998e-09
"2201" 45296 5.38572550556555e-09 1.80079775416043e-09 8.97285131270610e-09 5.9747491968288e-08 9.50622368048167e-08 4.40940191124844e-08 6.83692109244897e-08 5.11930286890998e-09
"2202" 45297 5.37825669716845e-09 1.79784612042985e-09 8.97066825113764e-09 5.97031132965898e-08 9.47623142006335e-08 4.41053286938944e-08 6.85010917312173e-08 5.11930286890998e-09
"2203" 45298 5.37508394900086e-09 1.79489448669926e-09 8.9842817494292e-09 5.98932179676274e-08 9.49861532009396e-08 4.41369330531394e-08 6.84900777140888e-08 5.12515846925784e-09
"2204" 45299 5.35985725546864e-09 1.79684861419543e-09 8.98723338315979e-09 5.98841813896023e-08 9.5000989335391e-08 4.36208159074459e-08 6.83911560616468e-08 5.10564083252197e-09
"2205" 45300 5.35345733549662e-09 1.79876185671895e-09 8.97877908937629e-09 5.99000986894983e-08 9.49095384510581e-08 4.35757028688861e-08 6.84314507575069e-08 5.09620870007157e-09
"2206" 45301 5.34705741552460e-09 1.80067509924248e-09 8.97032479559278e-09 5.99160159893942e-08 9.48180875667252e-08 4.35305898303263e-08 6.84717454533669e-08 5.08677656762116e-09
"2207" 45302 5.34065749555257e-09 1.802588341766e-09 8.96187050180928e-09 5.99319332892902e-08 9.47266366823924e-08 4.34854767917666e-08 6.8512040149227e-08 5.07734443517076e-09
"2208" 45303 5.33425757558055e-09 1.80450158428952e-09 8.95341620802577e-09 5.99478505891861e-08 9.46351857980595e-08 4.34403637532068e-08 6.8552334845087e-08 5.06791230272035e-09
"2209" 45304 5.32785765560853e-09 1.80641482681304e-09 8.94496191424227e-09 5.99637678890821e-08 9.45437349137266e-08 4.3395250714647e-08 6.85926295409471e-08 5.05848017026995e-09
"2210" 45305 5.32145773563651e-09 1.80832806933657e-09 8.93650762045876e-09 5.9979685188978e-08 9.44522840293938e-08 4.33501376760872e-08 6.86329242368072e-08 5.04904803781955e-09
"2211" 45306 5.31505781566449e-09 1.81024131186009e-09 8.92805332667526e-09 5.99956024888739e-08 9.43608331450609e-08 4.33050246375275e-08 6.86732189326672e-08 5.03961590536914e-09
"2212" 45307 5.30865789569247e-09 1.81215455438361e-09 8.91959903289175e-09 6.00115197887699e-08 9.4269382260728e-08 4.32599115989677e-08 6.87135136285273e-08 5.03018377291874e-09
"2213" 45308 5.30225797572045e-09 1.81406779690713e-09 8.91114473910825e-09 6.00274370886659e-08 9.41779313763952e-08 4.32147985604079e-08 6.87538083243873e-08 5.02075164046833e-09
"2214" 45309 5.29585805574843e-09 1.81598103943066e-09 8.90269044532474e-09 6.00433543885618e-08 9.40864804920623e-08 4.31696855218482e-08 6.87941030202474e-08 5.01131950801793e-09
"2215" 45310 5.28945813577641e-09 1.81789428195418e-09 8.89423615154123e-09 6.00592716884578e-08 9.39950296077295e-08 4.31245724832884e-08 6.88343977161075e-08 5.00188737556753e-09
"2216" 45311 5.28305821580439e-09 1.8198075244777e-09 8.88578185775773e-09 6.00751889883537e-08 9.39035787233966e-08 4.30794594447286e-08 6.88746924119675e-08 4.99245524311712e-09
"2217" 45312 5.27665829583236e-09 1.82172076700122e-09 8.87732756397422e-09 6.00911062882496e-08 9.38121278390637e-08 4.30343464061689e-08 6.89149871078276e-08 4.98302311066672e-09
"2218" 45313 5.27025837586034e-09 1.82363400952475e-09 8.86887327019072e-09 6.01070235881456e-08 9.37206769547309e-08 4.29892333676091e-08 6.89552818036876e-08 4.97359097821631e-09
"2219" 45314 5.26385845588832e-09 1.82554725204827e-09 8.86041897640721e-09 6.01229408880416e-08 9.3629226070398e-08 4.29441203290493e-08 6.89955764995477e-08 4.96415884576591e-09
"2220" 45315 5.2574585359163e-09 1.82746049457179e-09 8.85196468262371e-09 6.01388581879375e-08 9.35377751860651e-08 4.28990072904896e-08 6.90358711954077e-08 4.9547267133155e-09
"2221" 45316 5.25105861594428e-09 1.82937373709531e-09 8.8435103888402e-09 6.01547754878334e-08 9.34463243017323e-08 4.28538942519298e-08 6.90761658912678e-08 4.9452945808651e-09
"2222" 45317 5.24465869597226e-09 1.83128697961884e-09 8.8350560950567e-09 6.01706927877294e-08 9.33548734173994e-08 4.280878121337e-08 6.91164605871278e-08 4.9358624484147e-09
"2223" 45318 5.23825877600024e-09 1.83320022214236e-09 8.82660180127319e-09 6.01866100876253e-08 9.32634225330665e-08 4.27636681748103e-08 6.91567552829879e-08 4.92643031596429e-09
"2224" 45319 5.25250045165906e-09 1.83315933716971e-09 8.83003581235735e-09 6.05841532555665e-08 9.31128800290579e-08 4.31067738662431e-08 6.91467601816276e-08 4.91699818351389e-09
"2225" 45320 5.08583751015307e-09 1.82110749241143e-09 8.87892999360727e-09 6.06067476337931e-08 9.31106917864207e-08 4.31434216340703e-08 6.93938688858935e-08 4.82800543131032e-09
"2226" 45321 5.0870991164035e-09 1.82299622572594e-09 8.92786505982985e-09 6.06246333683639e-08 9.31127464868509e-08 4.3444422086277e-08 6.91787978741909e-08 4.828460007651e-09
"2227" 45322 5.08836072265393e-09 1.82488495904045e-09 8.97680012605243e-09 6.06425191029347e-08 9.31148011872811e-08 4.37454225384838e-08 6.89637268624883e-08 4.82891458399167e-09
"2228" 45323 5.08962232890436e-09 1.82677369235496e-09 9.025735192275e-09 6.06604048375056e-08 9.31168558877112e-08 4.40464229906905e-08 6.87486558507857e-08 4.82936916033235e-09
"2229" 45324 5.09088393515479e-09 1.82866242566947e-09 9.07467025849758e-09 6.06782905720764e-08 9.31189105881414e-08 4.43474234428973e-08 6.8533584839083e-08 4.82982373667303e-09
"2230" 45325 5.09214554140522e-09 1.83055115898398e-09 9.12360532472015e-09 6.06961763066472e-08 9.31209652885715e-08 4.4648423895104e-08 6.83185138273804e-08 4.83027831301371e-09
"2231" 45326 5.09340714765566e-09 1.83243989229849e-09 9.17254039094273e-09 6.07140620412181e-08 9.31230199890017e-08 4.49494243473108e-08 6.81034428156778e-08 4.83073288935439e-09
"2232" 45327 5.09466875390609e-09 1.834328625613e-09 9.22147545716531e-09 6.07319477757889e-08 9.31250746894318e-08 4.52504247995175e-08 6.78883718039752e-08 4.83118746569507e-09
"2233" 45328 5.09593036015652e-09 1.8362173589275e-09 9.27041052338788e-09 6.07498335103598e-08 9.3127129389862e-08 4.55514252517243e-08 6.76733007922726e-08 4.83164204203574e-09
"2234" 45329 5.09719196640695e-09 1.83810609224201e-09 9.31934558961046e-09 6.07677192449306e-08 9.31291840902921e-08 4.5852425703931e-08 6.74582297805699e-08 4.83209661837642e-09
"2235" 45330 5.09845357265738e-09 1.83999482555652e-09 9.36828065583304e-09 6.07856049795014e-08 9.31312387907223e-08 4.61534261561378e-08 6.72431587688673e-08 4.8325511947171e-09
"2236" 45331 5.09971517890781e-09 1.84188355887103e-09 9.41721572205561e-09 6.08034907140723e-08 9.31332934911525e-08 4.64544266083446e-08 6.70280877571647e-08 4.83300577105778e-09
"2237" 45332 5.10097678515824e-09 1.84377229218554e-09 9.46615078827819e-09 6.08213764486431e-08 9.31353481915826e-08 4.67554270605513e-08 6.68130167454621e-08 4.83346034739846e-09
"2238" 45333 5.10223839140867e-09 1.84566102550005e-09 9.51508585450077e-09 6.08392621832139e-08 9.31374028920128e-08 4.70564275127581e-08 6.65979457337595e-08 4.83391492373914e-09
"2239" 45334 5.1034999976591e-09 1.84754975881456e-09 9.56402092072334e-09 6.08571479177848e-08 9.31394575924429e-08 4.73574279649648e-08 6.63828747220568e-08 4.83436950007981e-09
"2240" 45335 5.10476160390954e-09 1.84943849212907e-09 9.61295598694592e-09 6.08750336523556e-08 9.31415122928731e-08 4.76584284171716e-08 6.61678037103542e-08 4.83482407642049e-09
"2241" 45336 5.10602321015997e-09 1.85132722544358e-09 9.66189105316849e-09 6.08929193869265e-08 9.31435669933032e-08 4.79594288693783e-08 6.59527326986516e-08 4.83527865276117e-09
"2242" 45337 5.1072848164104e-09 1.85321595875809e-09 9.71082611939107e-09 6.09108051214973e-08 9.31456216937334e-08 4.82604293215851e-08 6.5737661686949e-08 4.83573322910185e-09
"2243" 45338 5.10854642266083e-09 1.85510469207259e-09 9.75976118561365e-09 6.09286908560681e-08 9.31476763941636e-08 4.85614297737918e-08 6.55225906752464e-08 4.83618780544253e-09
"2244" 45339 5.10980802891126e-09 1.8569934253871e-09 9.80869625183622e-09 6.0946576590639e-08 9.31497310945937e-08 4.88624302259986e-08 6.53075196635438e-08 4.83664238178321e-09
"2245" 45340 5.11106963516169e-09 1.85888215870161e-09 9.8576313180588e-09 6.09644623252098e-08 9.31517857950239e-08 4.91634306782053e-08 6.50924486518411e-08 4.83709695812389e-09
"2246" 45341 5.11233124141212e-09 1.86077089201612e-09 9.90656638428137e-09 6.09823480597806e-08 9.3153840495454e-08 4.94644311304121e-08 6.48773776401385e-08 4.83755153446456e-09
"2247" 45342 5.11359284766255e-09 1.86265962533063e-09 9.95550145050395e-09 6.10002337943515e-08 9.31558951958842e-08 4.97654315826188e-08 6.46623066284359e-08 4.83800611080524e-09
"2248" 45343 5.07252735094824e-09 1.86400872055528e-09 9.94313076828272e-09 6.07657504516156e-08 9.33226436346309e-08 4.97643570263992e-08 6.44693078405754e-08 4.83150023189329e-09
"2249" 45344 5.03146185423393e-09 1.86535781577993e-09 9.93076008606149e-09 6.05312671088797e-08 9.34893920733777e-08 4.97632824701795e-08 6.4276309052715e-08 4.82499435298133e-09
"2250" 45345 4.99039635751962e-09 1.86670691100458e-09 9.91838940384026e-09 6.02967837661438e-08 9.36561405121244e-08 4.97622079139598e-08 6.40833102648545e-08 4.81848847406938e-09
"2251" 45346 4.9493308608053e-09 1.86805600622923e-09 9.90601872161903e-09 6.00623004234079e-08 9.38228889508711e-08 4.97611333577401e-08 6.3890311476994e-08 4.81198259515742e-09
"2252" 45347 4.90826536409099e-09 1.86940510145388e-09 9.8936480393978e-09 5.9827817080672e-08 9.39896373896179e-08 4.97600588015204e-08 6.36973126891335e-08 4.80547671624547e-09
"2253" 45348 4.86719986737668e-09 1.87075419667853e-09 9.88127735717657e-09 5.95933337379361e-08 9.41563858283646e-08 4.97589842453007e-08 6.35043139012731e-08 4.79897083733351e-09
"2254" 45349 4.82613437066237e-09 1.87210329190318e-09 9.86890667495534e-09 5.93588503952002e-08 9.43231342671113e-08 4.9757909689081e-08 6.33113151134126e-08 4.79246495842156e-09
"2255" 45350 4.78506887394806e-09 1.87345238712783e-09 9.85653599273411e-09 5.91243670524643e-08 9.44898827058581e-08 4.97568351328614e-08 6.31183163255522e-08 4.7859590795096e-09
"2256" 45351 4.74400337723374e-09 1.87480148235247e-09 9.84416531051288e-09 5.88898837097284e-08 9.46566311446048e-08 4.97557605766417e-08 6.29253175376917e-08 4.77945320059765e-09
"2257" 45352 4.70293788051943e-09 1.87615057757712e-09 9.83179462829165e-09 5.86554003669925e-08 9.48233795833515e-08 4.9754686020422e-08 6.27323187498312e-08 4.77294732168569e-09
"2258" 45353 4.66187238380512e-09 1.87749967280177e-09 9.81942394607042e-09 5.84209170242566e-08 9.49901280220983e-08 4.97536114642023e-08 6.25393199619707e-08 4.76644144277374e-09
"2259" 45354 4.62080688709081e-09 1.87884876802642e-09 9.80705326384919e-09 5.81864336815207e-08 9.5156876460845e-08 4.97525369079826e-08 6.23463211741103e-08 4.75993556386178e-09
"2260" 45355 4.57974139037649e-09 1.88019786325107e-09 9.79468258162796e-09 5.79519503387849e-08 9.53236248995917e-08 4.97514623517629e-08 6.21533223862498e-08 4.75342968494983e-09
"2261" 45356 4.53867589366218e-09 1.88154695847572e-09 9.78231189940673e-09 5.7717466996049e-08 9.54903733383385e-08 4.97503877955432e-08 6.19603235983893e-08 4.74692380603787e-09
"2262" 45357 4.55256959875332e-09 1.88570052330399e-09 9.803545725138e-09 5.71844724900952e-08 9.55234701079581e-08 5.0187549597118e-08 6.17790676035758e-08 4.74874211140058e-09
"2263" 45358 4.54943878586156e-09 1.88154695847572e-09 9.78725854560615e-09 5.69655302273746e-08 9.55225848945042e-08 5.03853099024335e-08 6.17165977477574e-08 4.74841697211853e-09
"2264" 45359 4.54630797296981e-09 1.87739339364745e-09 9.7709713660743e-09 5.67465879646539e-08 9.55216996810502e-08 5.05830702077489e-08 6.16541278919391e-08 4.74809183283648e-09
"2265" 45360 4.54317716007805e-09 1.87323982881919e-09 9.75468418654246e-09 5.65276457019333e-08 9.55208144675963e-08 5.07808305130644e-08 6.15916580361207e-08 4.74776669355443e-09
"2266" 45361 4.5400463471863e-09 1.86908626399092e-09 9.73839700701062e-09 5.63087034392126e-08 9.55199292541423e-08 5.09785908183798e-08 6.15291881803024e-08 4.74744155427238e-09
"2267" 45362 4.53691553429454e-09 1.86493269916265e-09 9.72210982747877e-09 5.60897611764919e-08 9.55190440406884e-08 5.11763511236953e-08 6.1466718324484e-08 4.74711641499034e-09
"2268" 45363 4.53378472140279e-09 1.86077913433439e-09 9.70582264794692e-09 5.58708189137713e-08 9.55181588272344e-08 5.13741114290107e-08 6.14042484686657e-08 4.74679127570829e-09
"2269" 45364 4.53065390851104e-09 1.85662556950612e-09 9.68953546841508e-09 5.56518766510506e-08 9.55172736137805e-08 5.15718717343262e-08 6.13417786128473e-08 4.74646613642624e-09
"2270" 45365 4.52752309561928e-09 1.85247200467785e-09 9.67324828888323e-09 5.543293438833e-08 9.55163884003265e-08 5.17696320396416e-08 6.1279308757029e-08 4.74614099714419e-09
"2271" 45366 4.52439228272753e-09 1.84831843984959e-09 9.65696110935139e-09 5.52139921256093e-08 9.55155031868726e-08 5.19673923449571e-08 6.12168389012106e-08 4.74581585786214e-09
"2272" 45367 4.52126146983577e-09 1.84416487502132e-09 9.64067392981954e-09 5.49950498628886e-08 9.55146179734186e-08 5.21651526502725e-08 6.11543690453923e-08 4.74549071858009e-09
"2273" 45368 4.51813065694402e-09 1.84001131019305e-09 9.6243867502877e-09 5.4776107600168e-08 9.55137327599647e-08 5.2362912955588e-08 6.10918991895739e-08 4.74516557929804e-09
"2274" 45369 4.51499984405226e-09 1.83585774536479e-09 9.60809957075585e-09 5.45571653374473e-08 9.55128475465107e-08 5.25606732609034e-08 6.10294293337556e-08 4.74484044001599e-09
"2275" 45370 4.51186903116051e-09 1.83170418053652e-09 9.59181239122401e-09 5.43382230747267e-08 9.55119623330568e-08 5.27584335662189e-08 6.09669594779372e-08 4.74451530073394e-09
"2276" 45371 4.50873821826876e-09 1.82755061570825e-09 9.57552521169216e-09 5.4119280812006e-08 9.55110771196028e-08 5.29561938715343e-08 6.09044896221189e-08 4.74419016145189e-09
"2277" 45372 4.505607405377e-09 1.82339705087999e-09 9.55923803216032e-09 5.39003385492853e-08 9.55101919061489e-08 5.31539541768498e-08 6.08420197663005e-08 4.74386502216984e-09
"2278" 45373 4.50247659248525e-09 1.81924348605172e-09 9.54295085262847e-09 5.36813962865647e-08 9.5509306692695e-08 5.33517144821652e-08 6.07795499104822e-08 4.74353988288779e-09
"2279" 45374 4.49934577959349e-09 1.81508992122345e-09 9.52666367309663e-09 5.3462454023844e-08 9.5508421479241e-08 5.35494747874807e-08 6.07170800546638e-08 4.74321474360574e-09
"2280" 45375 4.49621496670174e-09 1.81093635639519e-09 9.51037649356478e-09 5.32435117611234e-08 9.5507536265787e-08 5.37472350927961e-08 6.06546101988455e-08 4.74288960432369e-09
"2281" 45376 4.49308415380998e-09 1.80678279156692e-09 9.49408931403294e-09 5.30245694984027e-08 9.55066510523331e-08 5.39449953981116e-08 6.05921403430272e-08 4.74256446504164e-09
"2282" 45377 4.48995334091823e-09 1.80262922673865e-09 9.47780213450109e-09 5.2805627235682e-08 9.55057658388792e-08 5.4142755703427e-08 6.05296704872088e-08 4.74223932575959e-09
"2283" 45378 4.49507916627881e-09 1.79859831682834e-09 9.45899668017420e-09 5.26165673601391e-08 9.5676606489378e-08 5.41781460021736e-08 6.04819559821568e-08 4.74852741405986e-09
"2284" 45379 4.47672165985483e-09 1.80154995055893e-09 9.45899668017420e-09 5.22527078059121e-08 9.56962369248331e-08 5.41781460021736e-08 6.02840124821918e-08 4.71307176596163e-09
"2285" 45380 4.48147453792571e-09 1.80522927147901e-09 9.45109840024419e-09 5.21145752808341e-08 9.55456448388291e-08 5.41737207418441e-08 6.01176188858135e-08 4.73144037101619e-09
"2286" 45381 4.48622741599659e-09 1.80890859239908e-09 9.44320012031418e-09 5.1976442755756e-08 9.53950527528252e-08 5.41692954815146e-08 5.99512252894351e-08 4.74980897607075e-09
"2287" 45382 4.49098029406747e-09 1.81258791331915e-09 9.43530184038418e-09 5.18383102306779e-08 9.52444606668212e-08 5.41648702211851e-08 5.97848316930568e-08 4.76817758112531e-09
"2288" 45383 4.49573317213835e-09 1.81626723423923e-09 9.42740356045417e-09 5.17001777055999e-08 9.50938685808173e-08 5.41604449608556e-08 5.96184380966784e-08 4.78654618617987e-09
"2289" 45384 4.50048605020923e-09 1.8199465551593e-09 9.41950528052417e-09 5.15620451805218e-08 9.49432764948133e-08 5.41560197005261e-08 5.94520445003001e-08 4.80491479123442e-09
"2290" 45385 4.50523892828011e-09 1.82362587607937e-09 9.41160700059416e-09 5.14239126554437e-08 9.47926844088094e-08 5.41515944401966e-08 5.92856509039217e-08 4.82328339628898e-09
"2291" 45386 4.50999180635099e-09 1.82730519699945e-09 9.40370872066415e-09 5.12857801303656e-08 9.46420923228054e-08 5.41471691798672e-08 5.91192573075434e-08 4.84165200134354e-09
"2292" 45387 4.51474468442187e-09 1.83098451791952e-09 9.39581044073415e-09 5.11476476052876e-08 9.44915002368015e-08 5.41427439195377e-08 5.8952863711165e-08 4.8600206063981e-09
"2293" 45388 4.51949756249275e-09 1.83466383883959e-09 9.38791216080414e-09 5.10095150802095e-08 9.43409081507975e-08 5.41383186592082e-08 5.87864701147867e-08 4.87838921145266e-09
"2294" 45389 4.52425044056363e-09 1.83834315975967e-09 9.38001388087413e-09 5.08713825551314e-08 9.41903160647936e-08 5.41338933988787e-08 5.86200765184083e-08 4.89675781650722e-09
"2295" 45390 4.52900331863451e-09 1.84202248067974e-09 9.37211560094413e-09 5.07332500300534e-08 9.40397239787897e-08 5.41294681385492e-08 5.845368292203e-08 4.91512642156177e-09
"2296" 45391 4.53375619670539e-09 1.84570180159981e-09 9.36421732101412e-09 5.05951175049753e-08 9.38891318927857e-08 5.41250428782197e-08 5.82872893256516e-08 4.93349502661633e-09
"2297" 45392 4.53850907477627e-09 1.84938112251988e-09 9.35631904108412e-09 5.04569849798972e-08 9.37385398067818e-08 5.41206176178902e-08 5.81208957292733e-08 4.95186363167089e-09
"2298" 45393 4.54326195284715e-09 1.85306044343996e-09 9.34842076115411e-09 5.03188524548192e-08 9.35879477207778e-08 5.41161923575607e-08 5.79545021328949e-08 4.97023223672545e-09
"2299" 45394 4.54801483091803e-09 1.85673976436003e-09 9.3405224812241e-09 5.01807199297411e-08 9.34373556347739e-08 5.41117670972312e-08 5.77881085365166e-08 4.98860084178001e-09
"2300" 45395 4.55276770898891e-09 1.8604190852801e-09 9.3326242012941e-09 5.0042587404663e-08 9.32867635487699e-08 5.41073418369017e-08 5.76217149401382e-08 5.00696944683457e-09
"2301" 45396 4.55752058705979e-09 1.86409840620018e-09 9.32472592136409e-09 4.99044548795849e-08 9.3136171462766e-08 5.41029165765722e-08 5.74553213437599e-08 5.02533805188913e-09
"2302" 45397 4.56227346513067e-09 1.86777772712025e-09 9.31682764143408e-09 4.97663223545069e-08 9.2985579376762e-08 5.40984913162427e-08 5.72889277473815e-08 5.04370665694368e-09
"2303" 45398 4.56702634320155e-09 1.87145704804032e-09 9.30892936150408e-09 4.96281898294288e-08 9.28349872907581e-08 5.40940660559133e-08 5.71225341510032e-08 5.06207526199824e-09
"2304" 45399 4.57273479223101e-09 1.8751363689604e-09 9.28987046389589e-09 4.93974662902965e-08 9.20967760121542e-08 5.33667493352595e-08 5.70298102607878e-08 5.07497967115179e-09
"2305" 45400 4.57844324126047e-09 1.87881568988047e-09 9.27081156628771e-09 4.91667427511641e-08 9.13585647335503e-08 5.26394326146058e-08 5.69370863705724e-08 5.08788408030533e-09
"2306" 45401 4.65781636908704e-09 1.87858675580819e-09 9.25470430241011e-09 4.88835748907489e-08 9.06250283800275e-08 5.19183608942047e-08 5.6760862096516e-08 5.08159599200507e-09
"2307" 45402 4.73718949691361e-09 1.87835782173592e-09 9.23859703853252e-09 4.86004070303337e-08 8.98914920265047e-08 5.11972891738036e-08 5.65846378224596e-08 5.07530790370480e-09
"2308" 45403 4.81656262474019e-09 1.87812888766364e-09 9.22248977465492e-09 4.83172391699185e-08 8.91579556729818e-08 5.04762174534025e-08 5.64084135484032e-08 5.06901981540453e-09
"2309" 45404 4.89593575256676e-09 1.87789995359136e-09 9.20638251077733e-09 4.80340713095032e-08 8.8424419319459e-08 4.97551457330014e-08 5.62321892743469e-08 5.06273172710426e-09
"2310" 45405 4.97530888039333e-09 1.87767101951909e-09 9.19027524689973e-09 4.7750903449088e-08 8.76908829659362e-08 4.90340740126003e-08 5.60559650002905e-08 5.05644363880399e-09
"2311" 45406 5.0546820082199e-09 1.87744208544681e-09 9.17416798302214e-09 4.74677355886728e-08 8.69573466124134e-08 4.83130022921992e-08 5.58797407262341e-08 5.05015555050372e-09
"2312" 45407 5.13405513604648e-09 1.87721315137453e-09 9.15806071914454e-09 4.71845677282576e-08 8.62238102588905e-08 4.75919305717981e-08 5.57035164521777e-08 5.04386746220345e-09
"2313" 45408 5.21342826387305e-09 1.87698421730225e-09 9.14195345526695e-09 4.69013998678424e-08 8.54902739053677e-08 4.6870858851397e-08 5.55272921781214e-08 5.03757937390318e-09
"2314" 45409 5.29280139169962e-09 1.87675528322998e-09 9.12584619138935e-09 4.66182320074271e-08 8.47567375518449e-08 4.61497871309959e-08 5.5351067904065e-08 5.03129128560291e-09
"2315" 45410 5.37217451952619e-09 1.8765263491577e-09 9.10973892751176e-09 4.63350641470119e-08 8.4023201198322e-08 4.54287154105948e-08 5.51748436300086e-08 5.02500319730264e-09
"2316" 45411 5.45154764735277e-09 1.87629741508542e-09 9.09363166363416e-09 4.60518962865967e-08 8.32896648447992e-08 4.47076436901937e-08 5.49986193559522e-08 5.01871510900237e-09
"2317" 45412 5.53092077517934e-09 1.87606848101315e-09 9.07752439975657e-09 4.57687284261815e-08 8.25561284912764e-08 4.39865719697926e-08 5.48223950818958e-08 5.0124270207021e-09
"2318" 45413 5.61029390300591e-09 1.8721602260208e-09 9.08039426354185e-09 4.57718980106309e-08 8.24383104628351e-08 4.38973510392227e-08 5.48274869197016e-08 5.00613893240183e-09
"2319" 45414 5.64193751413013e-09 1.87189040697587e-09 9.07193996975835e-09 4.56654112869435e-08 8.23321499031157e-08 4.37578695470058e-08 5.43716293116096e-08 5.00277709764001e-09
"2320" 45415 5.6067312489948e-09 1.87775278946439e-09 9.08952711722392e-09 4.57935525276167e-08 8.22568452655596e-08 4.36288965750852e-08 5.46379420666643e-08 5.05633629013362e-09
"2321" 45416 5.57152498385947e-09 1.88361517195292e-09 9.1071142646895e-09 4.59216937682899e-08 8.21815406280036e-08 4.34999236031646e-08 5.49042548217191e-08 5.10989548262723e-09
"2322" 45417 5.53631871872413e-09 1.88947755444144e-09 9.12470141215508e-09 4.60498350089631e-08 8.21062359904475e-08 4.3370950631244e-08 5.51705675767738e-08 5.16345467512085e-09
"2323" 45418 5.5011124535888e-09 1.89533993692997e-09 9.14228855962065e-09 4.61779762496363e-08 8.20309313528915e-08 4.32419776593234e-08 5.54368803318286e-08 5.21701386761446e-09
"2324" 45419 5.46590618845347e-09 1.90120231941849e-09 9.15987570708623e-09 4.63061174903095e-08 8.19556267153354e-08 4.31130046874028e-08 5.57031930868834e-08 5.27057306010807e-09
"2325" 45420 5.43069992331813e-09 1.90706470190702e-09 9.17746285455181e-09 4.64342587309827e-08 8.18803220777793e-08 4.29840317154822e-08 5.59695058419381e-08 5.32413225260168e-09
"2326" 45421 5.3954936581828e-09 1.91292708439554e-09 9.19505000201738e-09 4.65623999716559e-08 8.18050174402233e-08 4.28550587435616e-08 5.62358185969929e-08 5.37769144509529e-09
"2327" 45422 5.36028739304747e-09 1.91878946688407e-09 9.21263714948296e-09 4.66905412123291e-08 8.17297128026672e-08 4.2726085771641e-08 5.65021313520476e-08 5.4312506375889e-09
"2328" 45423 5.32508112791213e-09 1.9246518493726e-09 9.23022429694854e-09 4.68186824530023e-08 8.16544081651111e-08 4.25971127997204e-08 5.67684441071024e-08 5.48480983008251e-09
"2329" 45424 5.2898748627768e-09 1.93051423186112e-09 9.24781144441411e-09 4.69468236936755e-08 8.15791035275551e-08 4.24681398277998e-08 5.70347568621572e-08 5.53836902257612e-09
"2330" 45425 5.25466859764147e-09 1.93637661434965e-09 9.26539859187969e-09 4.70749649343486e-08 8.1503798889999e-08 4.23391668558792e-08 5.73010696172119e-08 5.59192821506974e-09
"2331" 45426 5.21946233250613e-09 1.94223899683817e-09 9.28298573934527e-09 4.72031061750218e-08 8.14284942524429e-08 4.22101938839586e-08 5.75673823722667e-08 5.64548740756335e-09
"2332" 45427 5.1842560673708e-09 1.9481013793267e-09 9.30057288681084e-09 4.7331247415695e-08 8.13531896148869e-08 4.2081220912038e-08 5.78336951273215e-08 5.69904660005696e-09
"2333" 45428 5.14904980223547e-09 1.95396376181522e-09 9.31816003427642e-09 4.74593886563682e-08 8.12778849773308e-08 4.19522479401175e-08 5.81000078823762e-08 5.75260579255057e-09
"2334" 45429 5.11384353710013e-09 1.95982614430375e-09 9.335747181742e-09 4.75875298970414e-08 8.12025803397748e-08 4.18232749681969e-08 5.8366320637431e-08 5.80616498504418e-09
"2335" 45430 5.0786372719648e-09 1.96568852679227e-09 9.35333432920758e-09 4.77156711377146e-08 8.11272757022187e-08 4.16943019962763e-08 5.86326333924857e-08 5.85972417753779e-09
"2336" 45431 5.04343100682947e-09 1.9715509092808e-09 9.37092147667315e-09 4.78438123783878e-08 8.10519710646626e-08 4.15653290243557e-08 5.88989461475405e-08 5.9132833700314e-09
"2337" 45432 5.00822474169414e-09 1.97741329176933e-09 9.38850862413873e-09 4.7971953619061e-08 8.09766664271066e-08 4.14363560524351e-08 5.91652589025953e-08 5.96684256252501e-09
"2338" 45433 5.0209282227255e-09 1.98136243173433e-09 9.39844280151021e-09 4.82068176710833e-08 8.10309566626364e-08 4.12746888844194e-08 5.85264404270706e-08 6.01979565323105e-09
"2339" 45434 5.01452830275348e-09 1.97975989322839e-09 9.4369449372441e-09 4.82872246110512e-08 8.10295656129231e-08 4.13053939599904e-08 5.85327784624106e-08 6.01979565323105e-09
"2340" 45435 5.01166158987774e-09 1.98198383976949e-09 9.4391688837852e-09 4.82672907084237e-08 8.10416621468009e-08 4.15057597857121e-08 5.92321788289536e-08 6.09808089751524e-09
"2341" 45436 5.008794877002e-09 1.9842077863106e-09 9.44139283032631e-09 4.82473568057961e-08 8.10537586806787e-08 4.17061256114339e-08 5.99315791954966e-08 6.17636614179943e-09
"2342" 45437 5.00592816412627e-09 1.9864317328517e-09 9.44361677686741e-09 4.82274229031686e-08 8.10658552145565e-08 4.19064914371557e-08 6.06309795620396e-08 6.25465138608362e-09
"2343" 45438 5.00306145125053e-09 1.98865567939281e-09 9.44584072340852e-09 4.82074890005411e-08 8.10779517484343e-08 4.21068572628775e-08 6.13303799285826e-08 6.33293663036781e-09
"2344" 45439 5.00019473837479e-09 1.99087962593391e-09 9.44806466994962e-09 4.81875550979135e-08 8.10900482823122e-08 4.23072230885993e-08 6.20297802951256e-08 6.411221874652e-09
"2345" 45440 4.99732802549906e-09 1.99310357247502e-09 9.45028861649073e-09 4.8167621195286e-08 8.110214481619e-08 4.25075889143211e-08 6.27291806616686e-08 6.48950711893619e-09
"2346" 45441 4.99446131262332e-09 1.99532751901612e-09 9.45251256303183e-09 4.81476872926584e-08 8.11142413500678e-08 4.27079547400428e-08 6.34285810282116e-08 6.56779236322038e-09
"2347" 45442 4.99159459974758e-09 1.99755146555723e-09 9.45473650957294e-09 4.81277533900309e-08 8.11263378839456e-08 4.29083205657646e-08 6.41279813947546e-08 6.64607760750457e-09
"2348" 45443 4.98872788687184e-09 1.99977541209834e-09 9.45696045611404e-09 4.81078194874033e-08 8.11384344178234e-08 4.31086863914864e-08 6.48273817612976e-08 6.72436285178876e-09
"2349" 45444 4.98586117399611e-09 2.00199935863944e-09 9.45918440265515e-09 4.80878855847758e-08 8.11505309517012e-08 4.33090522172082e-08 6.55267821278406e-08 6.80264809607295e-09
"2350" 45445 4.98299446112037e-09 2.00422330518055e-09 9.46140834919625e-09 4.80679516821482e-08 8.11626274855791e-08 4.350941804293e-08 6.62261824943836e-08 6.88093334035714e-09
"2351" 45446 4.98012774824463e-09 2.00644725172165e-09 9.46363229573736e-09 4.80480177795207e-08 8.11747240194569e-08 4.37097838686518e-08 6.69255828609266e-08 6.95921858464133e-09
"2352" 45447 4.9772610353689e-09 2.00867119826276e-09 9.46585624227846e-09 4.80280838768932e-08 8.11868205533347e-08 4.39101496943735e-08 6.76249832274697e-08 7.03750382892551e-09
"2353" 45448 4.97439432249316e-09 2.01089514480386e-09 9.46808018881957e-09 4.80081499742656e-08 8.11989170872125e-08 4.41105155200953e-08 6.83243835940126e-08 7.1157890732097e-09
"2354" 45449 4.97152760961742e-09 2.01311909134497e-09 9.47030413536067e-09 4.79882160716381e-08 8.12110136210903e-08 4.43108813458171e-08 6.90237839605557e-08 7.19407431749389e-09
"2355" 45450 4.96866089674168e-09 2.01534303788607e-09 9.47252808190178e-09 4.79682821690105e-08 8.12231101549682e-08 4.45112471715389e-08 6.97231843270987e-08 7.27235956177808e-09
"2356" 45451 4.96579418386595e-09 2.01756698442718e-09 9.47475202844288e-09 4.7948348266383e-08 8.1235206688846e-08 4.47116129972607e-08 7.04225846936417e-08 7.35064480606227e-09
"2357" 45452 4.96292747099021e-09 2.01979093096828e-09 9.47697597498399e-09 4.79284143637554e-08 8.12473032227238e-08 4.49119788229825e-08 7.11219850601847e-08 7.42893005034646e-09
"2358" 45453 4.96006075811447e-09 2.02201487750939e-09 9.47919992152509e-09 4.79084804611279e-08 8.12593997566016e-08 4.51123446487042e-08 7.18213854267277e-08 7.50721529463065e-09
"2359" 45454 4.95719404523874e-09 2.02423882405049e-09 9.4814238680662e-09 4.78885465585003e-08 8.12714962904794e-08 4.5312710474426e-08 7.25207857932707e-08 7.58550053891484e-09
"2360" 45455 4.954327332363e-09 2.0264627705916e-09 9.4836478146073e-09 4.78686126558728e-08 8.12835928243572e-08 4.55130763001478e-08 7.32201861598137e-08 7.66378578319903e-09
"2361" 45456 4.95146061948726e-09 2.0286867171327e-09 9.48587176114841e-09 4.78486787532452e-08 8.12956893582351e-08 4.57134421258696e-08 7.39195865263567e-08 7.74207102748322e-09
"2362" 45457 4.95164084895161e-09 2.02876848707801e-09 9.48077795082202e-09 4.77810844169667e-08 8.06938379939393e-08 4.57147554723603e-08 7.39897021026154e-08 7.74851064123038e-09
"2363" 45458 4.95535428551224e-09 2.03188366069921e-09 9.47695146577498e-09 4.76738849408887e-08 8.02253611083905e-08 4.58730701878956e-08 7.43098414868137e-08 7.78333809915277e-09
"2364" 45459 4.95906772207287e-09 2.03499883432041e-09 9.47312498072793e-09 4.75666854648107e-08 7.97568842228417e-08 4.60313849034309e-08 7.4629980871012e-08 7.81816555707516e-09
"2365" 45460 4.9627811586335e-09 2.03811400794161e-09 9.46929849568089e-09 4.74594859887326e-08 7.92884073372929e-08 4.61896996189663e-08 7.49501202552103e-08 7.85299301499755e-09
"2366" 45461 4.96649459519413e-09 2.04122918156281e-09 9.46547201063384e-09 4.73522865126546e-08 7.88199304517441e-08 4.63480143345016e-08 7.52702596394085e-08 7.88782047291994e-09
"2367" 45462 4.97020803175476e-09 2.04434435518401e-09 9.4616455255868e-09 4.72450870365766e-08 7.83514535661953e-08 4.65063290500369e-08 7.55903990236068e-08 7.92264793084233e-09
"2368" 45463 4.97392146831540e-09 2.04745952880521e-09 9.45781904053975e-09 4.71378875604985e-08 7.78829766806466e-08 4.66646437655722e-08 7.59105384078051e-08 7.95747538876471e-09
"2369" 45464 4.97763490487603e-09 2.05057470242641e-09 9.45399255549271e-09 4.70306880844205e-08 7.74144997950978e-08 4.68229584811075e-08 7.62306777920034e-08 7.9923028466871e-09
"2370" 45465 4.98134834143666e-09 2.05368987604761e-09 9.45016607044566e-09 4.69234886083425e-08 7.6946022909549e-08 4.69812731966428e-08 7.65508171762017e-08 8.02713030460949e-09
"2371" 45466 4.98506177799729e-09 2.05680504966881e-09 9.44633958539862e-09 4.68162891322644e-08 7.64775460240002e-08 4.71395879121781e-08 7.68709565603999e-08 8.06195776253188e-09
"2372" 45467 4.98877521455792e-09 2.05992022329001e-09 9.44251310035157e-09 4.67090896561864e-08 7.60090691384514e-08 4.72979026277134e-08 7.71910959445982e-08 8.09678522045427e-09
"2373" 45468 4.99248865111855e-09 2.06303539691121e-09 9.43868661530453e-09 4.66018901801084e-08 7.55405922529027e-08 4.74562173432487e-08 7.75112353287965e-08 8.13161267837666e-09
"2374" 45469 4.99620208767918e-09 2.06615057053241e-09 9.43486013025748e-09 4.64946907040303e-08 7.50721153673539e-08 4.7614532058784e-08 7.78313747129948e-08 8.16644013629905e-09
"2375" 45470 4.99991552423981e-09 2.06926574415361e-09 9.43103364521044e-09 4.63874912279523e-08 7.46036384818051e-08 4.77728467743194e-08 7.81515140971931e-08 8.20126759422143e-09
"2376" 45471 4.99333537480344e-09 2.07003431631574e-09 9.44102508331822e-09 4.64162477093316e-08 7.46148781347977e-08 4.75913853299565e-08 7.81444901050022e-08 8.20178843572691e-09
"2377" 45472 4.99914018274558e-09 2.06700091263985e-09 9.37904066610295e-09 4.66563457359208e-08 7.61140359389442e-08 4.76382393100836e-08 7.81604916533028e-08 8.23084555358354e-09
"2378" 45473 5.00494499068772e-09 2.06396750896395e-09 9.31705624888769e-09 4.689644376251e-08 7.76131937430907e-08 4.76850932902107e-08 7.81764932016034e-08 8.25990267144017e-09
"2379" 45474 5.01074979862985e-09 2.06093410528806e-09 9.25507183167243e-09 4.71365417890992e-08 7.91123515472372e-08 4.77319472703378e-08 7.8192494749904e-08 8.28895978929681e-09
"2380" 45475 5.01655460657199e-09 2.05790070161217e-09 9.19308741445716e-09 4.73766398156884e-08 8.06115093513838e-08 4.77788012504649e-08 7.82084962982046e-08 8.31801690715344e-09
"2381" 45476 5.02235941451413e-09 2.05486729793627e-09 9.1311029972419e-09 4.76167378422776e-08 8.21106671555303e-08 4.78256552305921e-08 7.82244978465052e-08 8.34707402501007e-09
"2382" 45477 5.02816422245626e-09 2.05183389426038e-09 9.06911858002664e-09 4.78568358688668e-08 8.36098249596768e-08 4.78725092107192e-08 7.82404993948058e-08 8.37613114286671e-09
"2383" 45478 5.0339690303984e-09 2.04880049058448e-09 9.00713416281137e-09 4.8096933895456e-08 8.51089827638233e-08 4.79193631908463e-08 7.82565009431063e-08 8.40518826072334e-09
"2384" 45479 5.03977383834054e-09 2.04576708690859e-09 8.94514974559611e-09 4.83370319220452e-08 8.66081405679698e-08 4.79662171709734e-08 7.82725024914069e-08 8.43424537857997e-09
"2385" 45480 5.04557864628267e-09 2.04273368323269e-09 8.88316532838085e-09 4.85771299486344e-08 8.81072983721163e-08 4.80130711511005e-08 7.82885040397075e-08 8.46330249643661e-09
"2386" 45481 5.05138345422481e-09 2.0397002795568e-09 8.82118091116558e-09 4.88172279752236e-08 8.96064561762628e-08 4.80599251312276e-08 7.83045055880081e-08 8.49235961429324e-09
"2387" 45482 5.05718826216695e-09 2.0366668758809e-09 8.75919649395032e-09 4.90573260018128e-08 9.11056139804093e-08 4.81067791113547e-08 7.83205071363087e-08 8.52141673214987e-09
"2388" 45483 5.06299307010908e-09 2.03363347220501e-09 8.69721207673506e-09 4.9297424028402e-08 9.26047717845558e-08 4.81536330914818e-08 7.83365086846093e-08 8.55047385000651e-09
"2389" 45484 5.06879787805122e-09 2.03060006852911e-09 8.63522765951979e-09 4.95375220549911e-08 9.41039295887023e-08 4.82004870716089e-08 7.83525102329099e-08 8.57953096786314e-09
"2390" 45485 5.07460268599336e-09 2.02756666485322e-09 8.57324324230453e-09 4.97776200815803e-08 9.56030873928488e-08 4.82473410517361e-08 7.83685117812105e-08 8.60858808571978e-09
"2391" 45486 5.08040749393549e-09 2.02453326117732e-09 8.51125882508927e-09 5.00177181081695e-08 9.71022451969953e-08 4.82941950318632e-08 7.83845133295111e-08 8.63764520357641e-09
"2392" 45487 5.08621230187763e-09 2.02149985750143e-09 8.449274407874e-09 5.02578161347587e-08 9.86014030011418e-08 4.83410490119903e-08 7.84005148778117e-08 8.66670232143304e-09
"2393" 45488 5.09201710981976e-09 2.01846645382554e-09 8.38728999065874e-09 5.04979141613479e-08 1.00100560805288e-07 4.83879029921174e-08 7.84165164261123e-08 8.69575943928968e-09
"2394" 45489 5.0978219177619e-09 2.01543305014964e-09 8.32530557344348e-09 5.07380121879371e-08 1.01599718609435e-07 4.84347569722445e-08 7.84325179744129e-08 8.72481655714631e-09
"2395" 45490 5.10362672570404e-09 2.01239964647375e-09 8.26332115622821e-09 5.09781102145263e-08 1.03098876413581e-07 4.84816109523716e-08 7.84485195227135e-08 8.75387367500294e-09
"2396" 45491 5.12863129356224e-09 2.01343803768081e-09 8.25937201626321e-09 5.11273599298077e-08 1.0472052717125e-07 4.85284649324987e-08 7.84645210710141e-08 8.8013404814197e-09
"2397" 45492 5.39134036233462e-09 2.01707647362823e-09 8.26592120096857e-09 5.11323902608344e-08 1.04726146997747e-07 4.84654891123352e-08 7.84604481489765e-08 8.83204847734581e-09
"2398" 45493 5.39134036233462e-09 2.01776327584506e-09 8.28399896810598e-09 5.14738221468478e-08 1.04930301920284e-07 4.83960083290729e-08 7.84604481489765e-08 8.83436862909669e-09
"2399" 45494 5.39134036233462e-09 2.0184500780619e-09 8.30207673524339e-09 5.18152540328613e-08 1.05134456842821e-07 4.83265275458106e-08 7.84604481489765e-08 8.83668878084757e-09
"2400" 45495 5.39134036233462e-09 2.01913688027873e-09 8.32015450238080e-09 5.21566859188747e-08 1.05338611765358e-07 4.82570467625483e-08 7.84604481489765e-08 8.83900893259844e-09
"2401" 45496 5.39134036233462e-09 2.01982368249556e-09 8.3382322695182e-09 5.24981178048881e-08 1.05542766687896e-07 4.8187565979286e-08 7.84604481489765e-08 8.84132908434932e-09
"2402" 45497 5.39134036233462e-09 2.02051048471239e-09 8.35631003665561e-09 5.28395496909015e-08 1.05746921610433e-07 4.81180851960236e-08 7.84604481489765e-08 8.8436492361002e-09
"2403" 45498 5.39134036233462e-09 2.02119728692922e-09 8.37438780379302e-09 5.31809815769149e-08 1.0595107653297e-07 4.80486044127613e-08 7.84604481489765e-08 8.84596938785108e-09
"2404" 45499 5.39134036233462e-09 2.02188408914605e-09 8.39246557093043e-09 5.35224134629283e-08 1.06155231455507e-07 4.7979123629499e-08 7.84604481489765e-08 8.84828953960196e-09
"2405" 45500 5.39134036233462e-09 2.02257089136288e-09 8.41054333806784e-09 5.38638453489417e-08 1.06359386378045e-07 4.79096428462367e-08 7.84604481489765e-08 8.85060969135283e-09
"2406" 45501 5.39134036233462e-09 2.02325769357972e-09 8.42862110520525e-09 5.42052772349551e-08 1.06563541300582e-07 4.78401620629744e-08 7.84604481489765e-08 8.85292984310371e-09
"2407" 45502 5.39134036233462e-09 2.02394449579655e-09 8.44669887234266e-09 5.45467091209686e-08 1.06767696223119e-07 4.7770681279712e-08 7.84604481489765e-08 8.85524999485459e-09
"2408" 45503 5.39134036233462e-09 2.02463129801338e-09 8.46477663948007e-09 5.4888141006982e-08 1.06971851145656e-07 4.77012004964497e-08 7.84604481489765e-08 8.85757014660547e-09
"2409" 45504 5.39134036233462e-09 2.02531810023021e-09 8.48285440661748e-09 5.52295728929954e-08 1.07176006068194e-07 4.76317197131874e-08 7.84604481489765e-08 8.85989029835635e-09
"2410" 45505 5.39134036233462e-09 2.02600490244704e-09 8.50093217375489e-09 5.55710047790088e-08 1.07380160990731e-07 4.75622389299251e-08 7.84604481489765e-08 8.86221045010722e-09
"2411" 45506 5.39134036233462e-09 2.02669170466387e-09 8.5190099408923e-09 5.59124366650222e-08 1.07584315913268e-07 4.74927581466628e-08 7.84604481489765e-08 8.8645306018581e-09
"2412" 45507 5.39134036233462e-09 2.0273785068807e-09 8.53708770802971e-09 5.62538685510356e-08 1.07788470835805e-07 4.74232773634005e-08 7.84604481489765e-08 8.86685075360898e-09
"2413" 45508 5.39134036233462e-09 2.02806530909754e-09 8.55516547516712e-09 5.6595300437049e-08 1.07992625758343e-07 4.73537965801381e-08 7.84604481489765e-08 8.86917090535986e-09
"2414" 45509 5.39134036233462e-09 2.02875211131437e-09 8.57324324230453e-09 5.69367323230625e-08 1.0819678068088e-07 4.72843157968758e-08 7.84604481489765e-08 8.87149105711073e-09
"2415" 45510 5.39134036233462e-09 2.0294389135312e-09 8.59132100944194e-09 5.72781642090759e-08 1.08400935603417e-07 4.72148350136135e-08 7.84604481489765e-08 8.87381120886161e-09
"2416" 45511 5.39134036233462e-09 2.03012571574803e-09 8.60939877657935e-09 5.76195960950893e-08 1.08605090525954e-07 4.71453542303512e-08 7.84604481489765e-08 8.87613136061249e-09
"2417" 45512 5.39134036233462e-09 2.03081251796486e-09 8.62747654371676e-09 5.79610279811027e-08 1.08809245448492e-07 4.70758734470889e-08 7.84604481489765e-08 8.87845151236337e-09
"2418" 45513 5.39134036233462e-09 2.02218655084537e-09 8.63019924337507e-09 5.79610279811027e-08 1.08358091379838e-07 4.72328748161335e-08 7.82692585403687e-08 8.90176347181347e-09
"2419" 45514 5.37423197380006e-09 2.01680654571041e-09 8.60612006306754e-09 5.74810445502758e-08 1.07753630934352e-07 4.59143774080448e-08 7.82532569920681e-08 8.84698898247376e-09
"2420" 45515 5.3571235852655e-09 2.01142654057545e-09 8.58204088276e-09 5.7001061119449e-08 1.07149170488866e-07 4.45958799999561e-08 7.82372554437675e-08 8.79221449313404e-09
"2421" 45516 5.34001519673094e-09 2.0060465354405e-09 8.55796170245247e-09 5.65210776886221e-08 1.0654471004338e-07 4.32773825918673e-08 7.8221253895467e-08 8.73744000379433e-09
"2422" 45517 5.32290680819639e-09 2.00066653030554e-09 8.53388252214494e-09 5.60410942577952e-08 1.05940249597894e-07 4.19588851837786e-08 7.82052523471664e-08 8.68266551445462e-09
"2423" 45518 5.30579841966183e-09 1.99528652517058e-09 8.50980334183741e-09 5.55611108269683e-08 1.05335789152408e-07 4.06403877756899e-08 7.81892507988658e-08 8.62789102511491e-09
"2424" 45519 5.28869003112727e-09 1.98990652003562e-09 8.48572416152987e-09 5.50811273961415e-08 1.04731328706922e-07 3.93218903676012e-08 7.81732492505652e-08 8.5731165357752e-09
"2425" 45520 5.27158164259271e-09 1.98452651490067e-09 8.46164498122234e-09 5.46011439653146e-08 1.04126868261435e-07 3.80033929595125e-08 7.81572477022646e-08 8.51834204643549e-09
"2426" 45521 5.25447325405816e-09 1.97914650976571e-09 8.43756580091481e-09 5.41211605344877e-08 1.03522407815949e-07 3.66848955514238e-08 7.8141246153964e-08 8.46356755709578e-09
"2427" 45522 5.2373648655236e-09 1.97376650463075e-09 8.41348662060728e-09 5.36411771036608e-08 1.02917947370463e-07 3.53663981433351e-08 7.81252446056634e-08 8.40879306775607e-09
"2428" 45523 5.22025647698904e-09 1.96838649949579e-09 8.38940744029974e-09 5.3161193672834e-08 1.02313486924977e-07 3.40479007352464e-08 7.81092430573628e-08 8.35401857841636e-09
"2429" 45524 5.20314808845448e-09 1.96300649436083e-09 8.36532825999221e-09 5.26812102420071e-08 1.01709026479491e-07 3.27294033271577e-08 7.80932415090622e-08 8.29924408907665e-09
"2430" 45525 5.18603969991993e-09 1.95762648922588e-09 8.34124907968468e-09 5.22012268111802e-08 1.01104566034005e-07 3.1410905919069e-08 7.80772399607616e-08 8.24446959973694e-09
"2431" 45526 5.16893131138537e-09 1.95224648409092e-09 8.31716989937715e-09 5.17212433803534e-08 1.00500105588519e-07 3.00924085109803e-08 7.8061238412461e-08 8.18969511039722e-09
"2432" 45527 5.15407756514285e-09 1.94994076760451e-09 8.30503628467357e-09 5.12629852210827e-08 1.00424182821923e-07 3.00913686595956e-08 7.77744539995494e-08 8.08792429282778e-09
"2433" 45528 5.13922381890032e-09 1.9476350511181e-09 8.29290266996999e-09 5.0804727061812e-08 1.00348260055327e-07 3.0090328808211e-08 7.74876695866379e-08 7.98615347525833e-09
"2434" 45529 5.1243700726578e-09 1.94532933463169e-09 8.28076905526641e-09 5.03464689025414e-08 1.00272337288731e-07 3.00892889568263e-08 7.72008851737263e-08 7.88438265768889e-09
"2435" 45530 5.10951632641527e-09 1.94302361814528e-09 8.26863544056283e-09 4.98882107432707e-08 1.00196414522135e-07 3.00882491054416e-08 7.69141007608147e-08 7.78261184011944e-09
"2436" 45531 5.09466258017275e-09 1.94071790165887e-09 8.25650182585925e-09 4.9429952584e-08 1.00120491755539e-07 3.0087209254057e-08 7.66273163479031e-08 7.68084102254999e-09
"2437" 45532 5.07980883393022e-09 1.93841218517246e-09 8.24436821115567e-09 4.89716944247294e-08 1.00044568988943e-07 3.00861694026723e-08 7.63405319349915e-08 7.57907020498055e-09
"2438" 45533 5.0649550876877e-09 1.93610646868604e-09 8.2322345964521e-09 4.85134362654587e-08 9.99686462223474e-08 3.00851295512877e-08 7.60537475220799e-08 7.4772993874111e-09
"2439" 45534 5.04088913223426e-09 1.93598381376809e-09 8.23988756654619e-09 4.81144382610988e-08 9.99054522849535e-08 3.03011590607083e-08 7.62812003530601e-08 7.39309537088522e-09
"2440" 45535 5.01682317678082e-09 1.93586115885013e-09 8.24754053664028e-09 4.77154402567389e-08 9.98422583475597e-08 3.0517188570129e-08 7.65086531840403e-08 7.30889135435934e-09
"2441" 45536 4.99275722132738e-09 1.93573850393217e-09 8.25519350673437e-09 4.7316442252379e-08 9.97790644101658e-08 3.07332180795497e-08 7.67361060150204e-08 7.22468733783346e-09
"2442" 45537 4.96869126587394e-09 1.93561584901421e-09 8.26284647682846e-09 4.69174442480191e-08 9.9715870472772e-08 3.09492475889704e-08 7.69635588460006e-08 7.14048332130758e-09
"2443" 45538 4.9446253104205e-09 1.93549319409625e-09 8.27049944692255e-09 4.65184462436592e-08 9.96526765353781e-08 3.1165277098391e-08 7.71910116769807e-08 7.0562793047817e-09
"2444" 45539 4.92055935496706e-09 1.9353705391783e-09 8.27815241701664e-09 4.61194482392992e-08 9.95894825979842e-08 3.13813066078117e-08 7.74184645079609e-08 6.97207528825582e-09
"2445" 45540 4.89649339951362e-09 1.93524788426034e-09 8.28580538711073e-09 4.57204502349393e-08 9.95262886605904e-08 3.15973361172324e-08 7.7645917338941e-08 6.88787127172994e-09
"2446" 45541 4.87242744406018e-09 1.93512522934238e-09 8.29345835720482e-09 4.53214522305794e-08 9.94630947231965e-08 3.18133656266531e-08 7.78733701699212e-08 6.80366725520406e-09
"2447" 45542 4.84836148860674e-09 1.93500257442442e-09 8.30111132729891e-09 4.49224542262195e-08 9.93999007858027e-08 3.20293951360737e-08 7.81008230009013e-08 6.71946323867818e-09
"2448" 45543 4.8242955331533e-09 1.93487991950646e-09 8.308764297393e-09 4.45234562218596e-08 9.93367068484088e-08 3.22454246454944e-08 7.83282758318815e-08 6.6352592221523e-09
"2449" 45544 4.80022957769986e-09 1.9347572645885e-09 8.31641726748708e-09 4.41244582174997e-08 9.92735129110149e-08 3.24614541549151e-08 7.85557286628616e-08 6.55105520562642e-09
"2450" 45545 4.77616362224642e-09 1.93463460967055e-09 8.32407023758117e-09 4.37254602131398e-08 9.92103189736211e-08 3.26774836643358e-08 7.87831814938418e-08 6.46685118910054e-09
"2451" 45546 4.75209766679298e-09 1.93451195475259e-09 8.33172320767526e-09 4.33264622087799e-08 9.91471250362272e-08 3.28935131737564e-08 7.90106343248219e-08 6.38264717257466e-09
"2452" 45547 4.73576461975265e-09 1.92759480529336e-09 8.33561508690398e-09 4.28138503154668e-08 9.73246396845943e-08 3.3070218236903e-08 7.91404814115659e-08 6.33346940946555e-09
"2453" 45548 4.72655241054174e-09 1.92570607197885e-09 8.31322021504769e-09 4.28684180487826e-08 9.65832639065454e-08 3.20945071832498e-08 7.96901515363131e-08 6.34108323655324e-09
"2454" 45549 4.73069321802892e-09 1.92603315176007e-09 8.19433716637107e-09 4.19747660171728e-08 9.59373290377671e-08 3.20948865412315e-08 7.9508752527351e-08 6.34522478693779e-09
"2455" 45550 4.72801922297853e-09 1.91241965346851e-09 8.05623981364103e-09 4.10809369198168e-08 9.54306343092195e-08 3.22801915508766e-08 7.93421917662552e-08 6.35444222204746e-09
"2456" 45551 4.72534522792815e-09 1.89880615517695e-09 7.91814246091098e-09 4.01871078224608e-08 9.4923939580672e-08 3.24654965605218e-08 7.91756310051594e-08 6.36365965715714e-09
"2457" 45552 4.72267123287777e-09 1.88519265688539e-09 7.78004510818094e-09 3.92932787251048e-08 9.44172448521244e-08 3.2650801570167e-08 7.90090702440636e-08 6.37287709226681e-09
"2458" 45553 4.71999723782739e-09 1.87157915859383e-09 7.6419477554509e-09 3.83994496277488e-08 9.39105501235769e-08 3.28361065798122e-08 7.88425094829678e-08 6.38209452737649e-09
"2459" 45554 4.717323242777e-09 1.85796566030227e-09 7.50385040272086e-09 3.75056205303928e-08 9.34038553950293e-08 3.30214115894573e-08 7.8675948721872e-08 6.39131196248617e-09
"2460" 45555 4.71464924772662e-09 1.84435216201071e-09 7.36575304999081e-09 3.66117914330368e-08 9.28971606664818e-08 3.32067165991025e-08 7.85093879607762e-08 6.40052939759584e-09
"2461" 45556 4.71197525267624e-09 1.83073866371915e-09 7.22765569726077e-09 3.57179623356808e-08 9.23904659379343e-08 3.33920216087477e-08 7.83428271996804e-08 6.40974683270552e-09
"2462" 45557 4.70930125762586e-09 1.81712516542759e-09 7.08955834453073e-09 3.48241332383248e-08 9.18837712093867e-08 3.35773266183929e-08 7.81762664385846e-08 6.41896426781519e-09
"2463" 45558 4.70662726257548e-09 1.80351166713603e-09 6.95146099180069e-09 3.39303041409688e-08 9.13770764808392e-08 3.37626316280381e-08 7.80097056774888e-08 6.42818170292487e-09
"2464" 45559 4.70395326752509e-09 1.78989816884447e-09 6.81336363907065e-09 3.30364750436128e-08 9.08703817522916e-08 3.39479366376832e-08 7.7843144916393e-08 6.43739913803454e-09
"2465" 45560 4.70127927247471e-09 1.77628467055291e-09 6.6752662863406e-09 3.21426459462568e-08 9.03636870237441e-08 3.41332416473284e-08 7.76765841552972e-08 6.44661657314422e-09
"2466" 45561 4.69860527742433e-09 1.76267117226135e-09 6.53716893361056e-09 3.12488168489008e-08 8.98569922951966e-08 3.43185466569736e-08 7.75100233942014e-08 6.45583400825390e-09
"2467" 45562 4.69593128237395e-09 1.74905767396979e-09 6.39907158088052e-09 3.03549877515448e-08 8.9350297566649e-08 3.45038516666188e-08 7.73434626331056e-08 6.46505144336357e-09
"2468" 45563 4.69325728732356e-09 1.73544417567823e-09 6.26097422815048e-09 2.94611586541888e-08 8.88436028381015e-08 3.46891566762639e-08 7.71769018720098e-08 6.47426887847325e-09
"2469" 45564 4.69058329227318e-09 1.72183067738667e-09 6.12287687542043e-09 2.85673295568329e-08 8.83369081095539e-08 3.48744616859091e-08 7.7010341110914e-08 6.48348631358292e-09
"2470" 45565 4.6879092972228e-09 1.70821717909511e-09 5.98477952269039e-09 2.76735004594769e-08 8.78302133810064e-08 3.50597666955543e-08 7.68437803498182e-08 6.4927037486926e-09
"2471" 45566 4.68523530217242e-09 1.69460368080355e-09 5.84668216996035e-09 2.67796713621209e-08 8.73235186524589e-08 3.52450717051995e-08 7.66772195887225e-08 6.50192118380227e-09
"2472" 45567 4.68256130712204e-09 1.68099018251199e-09 5.70858481723031e-09 2.58858422647649e-08 8.68168239239113e-08 3.54303767148447e-08 7.65106588276267e-08 6.51113861891195e-09
"2473" 45568 4.67988731207165e-09 1.66737668422043e-09 5.57048746450027e-09 2.49920131674089e-08 8.63101291953638e-08 3.56156817244898e-08 7.63440980665309e-08 6.52035605402162e-09
"2474" 45569 4.67721331702127e-09 1.65376318592887e-09 5.43239011177022e-09 2.40981840700529e-08 8.58034344668162e-08 3.5800986734135e-08 7.61775373054351e-08 6.5295734891313e-09
"2475" 45570 4.67453932197089e-09 1.64014968763731e-09 5.29429275904018e-09 2.32043549726969e-08 8.52967397382687e-08 3.59862917437802e-08 7.60109765443393e-08 6.53879092424098e-09
"2476" 45571 4.6154812479541e-09 1.64206293016083e-09 5.32320406407455e-09 2.31944979541836e-08 8.54292360867039e-08 3.60692465015223e-08 7.6006757867118e-08 6.5496340557609e-09
"2477" 45572 4.55053449544351e-09 1.64397617268435e-09 5.32216567286748e-09 2.31863570606228e-08 8.54460530673398e-08 3.60012466969812e-08 7.59958467861056e-08 6.56535427651157e-09
"2478" 45573 4.48558774293292e-09 1.64588941520787e-09 5.32112728166041e-09 2.31782161670619e-08 8.54628700479756e-08 3.593324689244e-08 7.59849357050932e-08 6.58107449726225e-09
"2479" 45574 4.42064099042232e-09 1.6478026577314e-09 5.32008889045335e-09 2.31700752735011e-08 8.54796870286114e-08 3.58652470878989e-08 7.59740246240808e-08 6.59679471801292e-09
"2480" 45575 4.35569423791173e-09 1.64971590025492e-09 5.31905049924628e-09 2.31619343799403e-08 8.54965040092472e-08 3.57972472833578e-08 7.59631135430685e-08 6.61251493876360e-09
"2481" 45576 4.29074748540114e-09 1.65162914277844e-09 5.31801210803921e-09 2.31537934863795e-08 8.5513320989883e-08 3.57292474788166e-08 7.59522024620561e-08 6.62823515951427e-09
"2482" 45577 4.22580073289055e-09 1.65354238530196e-09 5.31697371683215e-09 2.31456525928187e-08 8.55301379705188e-08 3.56612476742755e-08 7.59412913810437e-08 6.64395538026494e-09
"2483" 45578 4.16085398037995e-09 1.65545562782549e-09 5.31593532562508e-09 2.31375116992579e-08 8.55469549511546e-08 3.55932478697343e-08 7.59303803000313e-08 6.65967560101562e-09
"2484" 45579 4.09590722786936e-09 1.65736887034901e-09 5.31489693441801e-09 2.31293708056971e-08 8.55637719317904e-08 3.55252480651932e-08 7.59194692190189e-08 6.67539582176629e-09
"2485" 45580 4.03096047535877e-09 1.65928211287253e-09 5.31385854321095e-09 2.31212299121363e-08 8.55805889124262e-08 3.54572482606521e-08 7.59085581380066e-08 6.69111604251696e-09
"2486" 45581 3.96601372284817e-09 1.66119535539605e-09 5.31282015200388e-09 2.31130890185755e-08 8.5597405893062e-08 3.53892484561109e-08 7.58976470569942e-08 6.70683626326764e-09
"2487" 45582 3.90106697033758e-09 1.66310859791958e-09 5.31178176079681e-09 2.31049481250147e-08 8.56142228736978e-08 3.53212486515698e-08 7.58867359759818e-08 6.72255648401831e-09
"2488" 45583 3.86598651102975e-09 1.66310859791958e-09 5.30292685960505e-09 2.30732640131751e-08 8.56399648056242e-08 3.51637273568329e-08 7.5883473356445e-08 6.68414940072241e-09
"2489" 45584 3.85328302999839e-09 1.6650218404431e-09 5.30292685960505e-09 2.30707540255283e-08 8.56066151178748e-08 3.51962233594366e-08 7.55701293121539e-08 6.70054198842545e-09
"2490" 45585 3.84057954896702e-09 1.66498095547044e-09 5.3051099211735e-09 2.30665279129291e-08 8.55602523274012e-08 3.52348237945823e-08 7.52538141586934e-08 6.71988601132616e-09
"2491" 45586 3.82787606793566e-09 1.66494007049779e-09 5.30729298274195e-09 2.30623018003298e-08 8.55138895369275e-08 3.52734242297281e-08 7.49374990052329e-08 6.73923003422687e-09
"2492" 45587 3.81517258690429e-09 1.66489918552514e-09 5.3094760443104e-09 2.30580756877305e-08 8.54675267464538e-08 3.53120246648738e-08 7.46211838517724e-08 6.75857405712758e-09
"2493" 45588 3.80246910587293e-09 1.66485830055249e-09 5.31165910587886e-09 2.30538495751312e-08 8.54211639559801e-08 3.53506251000195e-08 7.43048686983119e-08 6.77791808002828e-09
"2494" 45589 3.78976562484157e-09 1.66481741557983e-09 5.31384216744731e-09 2.30496234625319e-08 8.53748011655065e-08 3.53892255351653e-08 7.39885535448514e-08 6.79726210292899e-09
"2495" 45590 3.7770621438102e-09 1.66477653060718e-09 5.31602522901576e-09 2.30453973499326e-08 8.53284383750328e-08 3.5427825970311e-08 7.36722383913909e-08 6.8166061258297e-09
"2496" 45591 3.76435866277884e-09 1.66473564563453e-09 5.31820829058421e-09 2.30411712373333e-08 8.52820755845591e-08 3.54664264054567e-08 7.33559232379304e-08 6.83595014873041e-09
"2497" 45592 3.75165518174747e-09 1.66469476066188e-09 5.32039135215267e-09 2.3036945124734e-08 8.52357127940854e-08 3.55050268406025e-08 7.30396080844699e-08 6.85529417163112e-09
"2498" 45593 3.74008750113903e-09 1.66546333282401e-09 5.32269706863908e-09 2.3036945124734e-08 8.52617076441415e-08 3.55113700634155e-08 7.2721069266257e-08 6.85713765865305e-09
"2499" 45594 3.7285198205306e-09 1.66623190498615e-09 5.32500278512549e-09 2.3036945124734e-08 8.52877024941976e-08 3.55177132862285e-08 7.2402530448044e-08 6.85898114567499e-09
"2500" 45595 3.71695213992216e-09 1.66700047714829e-09 5.3273085016119e-09 2.3036945124734e-08 8.53136973442537e-08 3.55240565090416e-08 7.20839916298311e-08 6.86082463269692e-09
"2501" 45596 3.70538445931372e-09 1.66776904931042e-09 5.32961421809831e-09 2.3036945124734e-08 8.53396921943098e-08 3.55303997318546e-08 7.17654528116181e-08 6.86266811971886e-09
"2502" 45597 3.69381677870528e-09 1.66853762147256e-09 5.33191993458472e-09 2.3036945124734e-08 8.53656870443659e-08 3.55367429546677e-08 7.14469139934052e-08 6.86451160674079e-09
"2503" 45598 3.68224909809684e-09 1.6693061936347e-09 5.33422565107113e-09 2.3036945124734e-08 8.5391681894422e-08 3.55430861774807e-08 7.11283751751922e-08 6.86635509376273e-09
"2504" 45599 3.67068141748841e-09 1.67007476579683e-09 5.33653136755754e-09 2.3036945124734e-08 8.54176767444781e-08 3.55494294002938e-08 7.08098363569793e-08 6.86819858078466e-09
"2505" 45600 3.65911373687997e-09 1.67084333795897e-09 5.33883708404395e-09 2.3036945124734e-08 8.54436715945342e-08 3.55557726231068e-08 7.04912975387663e-08 6.8700420678066e-09
"2506" 45601 3.64754605627153e-09 1.67161191012111e-09 5.34114280053036e-09 2.3036945124734e-08 8.54696664445903e-08 3.55621158459199e-08 7.01727587205534e-08 6.87188555482853e-09
"2507" 45602 3.63597837566309e-09 1.67238048228324e-09 5.34344851701677e-09 2.3036945124734e-08 8.54956612946464e-08 3.55684590687329e-08 6.98542199023404e-08 6.87372904185047e-09
"2508" 45603 3.62441069505465e-09 1.67314905444538e-09 5.34575423350318e-09 2.3036945124734e-08 8.55216561447025e-08 3.5574802291546e-08 6.95356810841275e-08 6.8755725288724e-09
